id, time (s), size (bits)
0,1456002752.28186488151550292969,1456002752.28224277496337890625,6432
1,1456002752.388935089111328125,1456002752.38915848731994628906,5064
2,1456002752.48959779739379882812,1456002752.48982501029968261719,4960
3,1456002752.58982801437377929688,1456002752.59004497528076171875,4864
4,1456002752.69042897224426269531,1456002752.69065546989440917969,4776
5,1456002752.79081320762634277344,1456002752.79102993011474609375,4696
6,1456002752.89048409461975097656,1456002752.89070582389831542969,4616
7,1456002752.99059247970581054688,1456002752.99081087112426757812,4552
8,1456002753.09141397476196289062,1456002753.0916309356689453125,4488
9,1456002753.19235324859619140625,1456002753.19259023666381835938,4432
10,1456002753.29252266883850097656,1456002753.292743682861328125,4392
11,1456002753.392467498779296875,1456002753.392688751220703125,4352
12,1456002753.4927539825439453125,1456002753.49297308921813964844,4328
13,1456002753.59242296218872070312,1456002753.59264087677001953125,4304
14,1456002753.69272708892822265625,1456002753.69295024871826171875,4296
15,1456002753.7928066253662109375,1456002753.79302668571472167969,4296
16,1456002753.89285612106323242188,1456002753.8930759429931640625,4296
17,1456002753.99443650245666503906,1456002753.99465823173522949219,4312
18,1456002754.09484910964965820312,1456002754.09506821632385253906,4336
19,1456002754.1951007843017578125,1456002754.19533491134643554688,4376
20,1456002754.2952136993408203125,1456002754.29543566703796386719,4416
21,1456002754.39596533775329589844,1456002754.39618849754333496094,4464
22,1456002754.49660706520080566406,1456002754.49682664871215820312,4520
23,1456002754.59708833694458007812,1456002754.59731292724609375,4584
24,1456002754.69884014129638671875,1456002754.69906210899353027344,4664
25,1456002754.79917836189270019531,1456002754.79940462112426757812,4744
26,1456002754.90075039863586425781,1456002754.90097165107727050781,4832
27,1456002755.00325298309326171875,1456002755.00348162651062011719,4920
28,1456002755.10372209548950195312,1456002755.10393643379211425781,5024
29,1456002755.20455789566040039062,1456002755.20479297637939453125,5128
30,1456002755.30531144142150878906,1456002755.30553555488586425781,5240
31,1456002755.4068851470947265625,1456002755.40710520744323730469,5352
32,1456002755.50870251655578613281,1456002755.50892472267150878906,5472
33,1456002755.61039519309997558594,1456002755.6106109619140625,5592
34,1456002755.71131801605224609375,1456002755.71154427528381347656,5712
35,1456002755.8126354217529296875,1456002755.81285953521728515625,5840
36,1456002755.91363668441772460938,1456002755.91385746002197265625,5968
37,1456002756.0139141082763671875,1456002756.01413035392761230469,6088
38,1456002756.11421799659729003906,1456002756.11443543434143066406,6216
39,1456002756.21497011184692382812,1456002756.21520376205444335938,6344
40,1456002756.31550145149230957031,1456002756.31571316719055175781,6464
41,1456002756.41623783111572265625,1456002756.4164600372314453125,6592
42,1456002756.51692605018615722656,1456002756.51714444160461425781,6712
43,1456002756.61776804924011230469,1456002756.61798715591430664062,6824
44,1456002756.71937775611877441406,1456002756.71959924697875976562,6944
45,1456002756.81988430023193359375,1456002756.82010531425476074219,7048
46,1456002756.92116785049438476562,1456002756.92138910293579101562,7152
47,1456002757.03897142410278320312,1456002757.03918814659118652344,7272
48,1456002757.15812706947326660156,1456002757.15834736824035644531,7376
49,1456002757.27903342247009277344,1456002757.27926588058471679688,7480
50,1456002757.40085053443908691406,1456002757.40106725692749023438,7576
51,1456002757.52400493621826171875,1456002757.52422451972961425781,7656
52,1456002757.64849495887756347656,1456002757.64871239662170410156,7728
53,1456002757.77345061302185058594,1456002757.7736682891845703125,7784
54,1456002757.89889478683471679688,1456002757.89911818504333496094,7832
55,1456002758.02488946914672851562,1456002758.02510619163513183594,7864
56,1456002758.15135836601257324219,1456002758.151580810546875,7888
57,1456002758.277690887451171875,1456002758.2779140472412109375,7888
58,1456002758.40402984619140625,1456002758.404247283935546875,7880
59,1456002758.53017425537109375,1456002758.53040933609008789062,7864
60,1456002758.65560245513916015625,1456002758.65582299232482910156,7824
61,1456002758.78091931343078613281,1456002758.78115057945251464844,7776
62,1456002758.90454745292663574219,1456002758.9047679901123046875,7720
63,1456002759.02747869491577148438,1456002759.02771449089050292969,7648
64,1456002759.14964938163757324219,1456002759.14987039566040039062,7560
65,1456002759.27010846138000488281,1456002759.270336151123046875,7472
66,1456002759.38919472694396972656,1456002759.38959550857543945312,7368
67,1456002759.50627899169921875,1456002759.50649952888488769531,7256
68,1456002759.62235879898071289062,1456002759.62258315086364746094,7144
69,1456002759.73702549934387207031,1456002759.73726344108581542969,7024
70,1456002759.84946751594543457031,1456002759.84969353675842285156,6904
71,1456002759.9601383209228515625,1456002759.960361480712890625,6776
72,1456002760.06911587715148925781,1456002760.06934142112731933594,6648
73,1456002760.17601823806762695312,1456002760.176242828369140625,6512
74,1456002760.28122663497924804688,1456002760.28144788742065429688,6384
75,1456002760.3846797943115234375,1456002760.38497567176818847656,6256
76,1456002760.48685622215270996094,1456002760.48708319664001464844,6128
77,1456002760.58798813819885253906,1456002760.58820939064025878906,6000
78,1456002760.68926095962524414062,1456002760.68951725959777832031,5872
79,1456002760.79005026817321777344,1456002760.79029059410095214844,5752
80,1456002760.89126706123352050781,1456002760.89148545265197753906,5624
81,1456002760.99216914176940917969,1456002760.99239349365234375,5504
82,1456002761.09322953224182128906,1456002761.09345149993896484375,5384
83,1456002761.19424796104431152344,1456002761.19446921348571777344,5272
84,1456002761.29459667205810546875,1456002761.29481840133666992188,5160
85,1456002761.39488863945007324219,1456002761.39510464668273925781,5056
86,1456002761.49586343765258789062,1456002761.49609160423278808594,4952
87,1456002761.59722065925598144531,1456002761.59760379791259765625,4856
88,1456002761.6994800567626953125,1456002761.69970154762268066406,4768
89,1456002761.80058169364929199219,1456002761.80082726478576660156,4688
90,1456002761.901874542236328125,1456002761.90209698677062988281,4608
91,1456002762.002628326416015625,1456002762.002849578857421875,4544
92,1456002762.10386967658996582031,1456002762.10408520698547363281,4480
93,1456002762.20480179786682128906,1456002762.20502209663391113281,4424
94,1456002762.30479288101196289062,1456002762.30501270294189453125,4384
95,1456002762.40508675575256347656,1456002762.40551519393920898438,4352
96,1456002762.50685787200927734375,1456002762.50707840919494628906,4320
97,1456002762.60848402976989746094,1456002762.60869240760803222656,4304
98,1456002762.70999956130981445312,1456002762.71021747589111328125,4296
99,1456002762.80990338325500488281,1456002762.81013774871826171875,4296
100,1456002762.9096698760986328125,1456002762.90988683700561523438,4304
101,1456002763.00973963737487792969,1456002763.00994443893432617188,4320
102,1456002763.11012673377990722656,1456002763.11034226417541503906,4344
103,1456002763.20910406112670898438,1456002763.2094898223876953125,4376
104,1456002763.30851268768310546875,1456002763.30890202522277832031,4424
105,1456002763.40723919868469238281,1456002763.40744948387145996094,4472
106,1456002763.50719285011291503906,1456002763.50740194320678710938,4528
107,1456002763.60754847526550292969,1456002763.60775637626647949219,4592
108,1456002763.70717072486877441406,1456002763.70738291740417480469,4664
109,1456002763.80623006820678710938,1456002763.80645680427551269531,4744
110,1456002763.90560102462768554688,1456002763.90581798553466796875,4832
111,1456002764.00590085983276367188,1456002764.00611233711242675781,4928
112,1456002764.10640835762023925781,1456002764.10662364959716796875,5024
113,1456002764.2058506011962890625,1456002764.20606303215026855469,5128
114,1456002764.30546116828918457031,1456002764.30567765235900878906,5240
115,1456002764.40473842620849609375,1456002764.40495562553405761719,5352
116,1456002764.50548195838928222656,1456002764.50569772720336914062,5464
117,1456002764.604869842529296875,1456002764.60508394241333007812,5584
118,1456002764.70409297943115234375,1456002764.70430612564086914062,5704
119,1456002764.80312895774841308594,1456002764.80335903167724609375,5824
120,1456002764.90282106399536132812,1456002764.90303730964660644531,5952
121,1456002765.00301623344421386719,1456002765.00322389602661132812,6080
122,1456002765.10209798812866210938,1456002765.10234117507934570312,6200
123,1456002765.20142602920532226562,1456002765.20163583755493164062,6328
124,1456002765.30081033706665039062,1456002765.30102515220642089844,6448
125,1456002765.40072417259216308594,1456002765.40094351768493652344,6568
126,1456002765.50110077857971191406,1456002765.50131320953369140625,6688
127,1456002765.60008215904235839844,1456002765.60030388832092285156,6808
128,1456002765.70049929618835449219,1456002765.70071077346801757812,6920
129,1456002765.80368471145629882812,1456002765.80391645431518554688,7032
130,1456002765.90831971168518066406,1456002765.90865087509155273438,7136
131,1456002766.02554726600646972656,1456002766.02575731277465820312,7256
132,1456002766.14456439018249511719,1456002766.14477634429931640625,7368
133,1456002766.2651042938232421875,1456002766.2653141021728515625,7464
134,1456002766.386753082275390625,1456002766.3869647979736328125,7560
135,1456002766.50979876518249511719,1456002766.51000928878784179688,7640
136,1456002766.63375711441040039062,1456002766.63396382331848144531,7720
137,1456002766.75868487358093261719,1456002766.75888991355895996094,7776
138,1456002766.88414239883422851562,1456002766.8843536376953125,7824
139,1456002767.01026821136474609375,1456002767.01048827171325683594,7864
140,1456002767.13652944564819335938,1456002767.13673424720764160156,7880
141,1456002767.26294279098510742188,1456002767.26315474510192871094,7888
142,1456002767.38951086997985839844,1456002767.38972520828247070312,7888
143,1456002767.52315044403076171875,1456002767.52337813377380371094,7864
144,1456002767.6488132476806640625,1456002767.64903092384338378906,7832
145,1456002767.77374625205993652344,1456002767.77396559715270996094,7784
146,1456002767.89771747589111328125,1456002767.8979396820068359375,7720
147,1456002768.02066946029663085938,1456002768.02088904380798339844,7648
148,1456002768.14266490936279296875,1456002768.14288210868835449219,7568
149,1456002768.2633533477783203125,1456002768.26358556747436523438,7480
150,1456002768.382568359375,1456002768.38278746604919433594,7376
151,1456002768.50026941299438476562,1456002768.50049185752868652344,7264
152,1456002768.61617016792297363281,1456002768.61642885208129882812,7152
153,1456002768.73118734359741210938,1456002768.73141431808471679688,7032
154,1456002768.84338712692260742188,1456002768.843608856201171875,6912
155,1456002768.95428323745727539062,1456002768.95450496673583984375,6784
156,1456002769.06341695785522460938,1456002769.06363606452941894531,6656
157,1456002769.17053937911987304688,1456002769.17076134681701660156,6520
158,1456002769.2757816314697265625,1456002769.27600789070129394531,6392
159,1456002769.37948203086853027344,1456002769.37971615791320800781,6264
160,1456002769.48103356361389160156,1456002769.48125553131103515625,6136
161,1456002769.58142924308776855469,1456002769.58165264129638671875,6008
162,1456002769.68299627304077148438,1456002769.68321728706359863281,5880
163,1456002769.78358912467956542969,1456002769.78381609916687011719,5752
164,1456002769.88367700576782226562,1456002769.88389444351196289062,5632
165,1456002769.98406243324279785156,1456002769.98428463935852050781,5512
166,1456002770.08461737632751464844,1456002770.08483982086181640625,5392
167,1456002770.18578696250915527344,1456002770.18601083755493164062,5280
168,1456002770.28679180145263671875,1456002770.28701138496398925781,5168
169,1456002770.38779997825622558594,1456002770.38804268836975097656,5064
170,1456002770.48818993568420410156,1456002770.48849964141845703125,4960
171,1456002770.58912444114685058594,1456002770.58935475349426269531,4864
172,1456002770.69042205810546875,1456002770.69064211845397949219,4776
173,1456002770.79065728187561035156,1456002770.79087543487548828125,4696
174,1456002770.89040851593017578125,1456002770.89063477516174316406,4616
175,1456002770.99065351486206054688,1456002770.99087047576904296875,4552
176,1456002771.09114170074462890625,1456002771.09136557579040527344,4488
177,1456002771.19142913818359375,1456002771.19165635108947753906,4432
178,1456002771.29219388961791992188,1456002771.29241466522216796875,4392
179,1456002771.39218997955322265625,1456002771.39242267608642578125,4352
180,1456002771.49237155914306640625,1456002771.49259448051452636719,4328
181,1456002771.59306788444519042969,1456002771.59328889846801757812,4304
182,1456002771.693798065185546875,1456002771.69402027130126953125,4296
183,1456002771.79319691658020019531,1456002771.79340863227844238281,4296
184,1456002771.892120361328125,1456002771.8923320770263671875,4296
185,1456002771.99162173271179199219,1456002771.99183750152587890625,4312
186,1456002772.09123277664184570312,1456002772.09144496917724609375,4336
187,1456002772.19119381904602050781,1456002772.19140768051147460938,4368
188,1456002772.29005718231201171875,1456002772.29026651382446289062,4408
189,1456002772.38914394378662109375,1456002772.38936972618103027344,4464
190,1456002772.48960566520690917969,1456002772.48982405662536621094,4520
191,1456002772.58787202835083007812,1456002772.58810949325561523438,4584
192,1456002772.68806743621826171875,1456002772.68828082084655761719,4656
193,1456002772.78648614883422851562,1456002772.78669857978820800781,4728
194,1456002772.88624668121337890625,1456002772.88645768165588378906,4816
195,1456002772.98685121536254882812,1456002772.98706459999084472656,4912
196,1456002773.0867023468017578125,1456002773.08691811561584472656,5008
197,1456002773.18669676780700683594,1456002773.18691682815551757812,5112
198,1456002773.286304473876953125,1456002773.2865200042724609375,5216
199,1456002773.38651609420776367188,1456002773.38674640655517578125,5328
200,1456002773.48704266548156738281,1456002773.48725986480712890625,5440
201,1456002773.58630251884460449219,1456002773.58656358718872070312,5560
202,1456002773.68595838546752929688,1456002773.68617367744445800781,5680
203,1456002773.7850513458251953125,1456002773.78526258468627929688,5808
204,1456002773.8854236602783203125,1456002773.88564395904541015625,5928
205,1456002773.98644590377807617188,1456002773.98665785789489746094,6056
206,1456002774.08585047721862792969,1456002774.08606266975402832031,6184
207,1456002774.1853313446044921875,1456002774.18553900718688964844,6304
208,1456002774.28530359268188476562,1456002774.28551220893859863281,6432
209,1456002774.38553643226623535156,1456002774.385761260986328125,6552
210,1456002774.48570942878723144531,1456002774.48592305183410644531,6672
211,1456002774.58482027053833007812,1456002774.58503174781799316406,6792
212,1456002774.68446874618530273438,1456002774.68468356132507324219,6904
213,1456002774.78450775146484375,1456002774.78472185134887695312,7016
214,1456002774.88890290260314941406,1456002774.88911366462707519531,7120
215,1456002775.00612878799438476562,1456002775.00633716583251953125,7232
216,1456002775.12473821640014648438,1456002775.12495207786560058594,7344
217,1456002775.24496221542358398438,1456002775.24517512321472167969,7448
218,1456002775.36650943756103515625,1456002775.36675858497619628906,7544
219,1456002775.48948526382446289062,1456002775.48971390724182128906,7632
220,1456002775.61333727836608886719,1456002775.61354780197143554688,7704
221,1456002775.73802852630615234375,1456002775.73823571205139160156,7768
222,1456002775.86330771446228027344,1456002775.8635234832763671875,7816
223,1456002775.98905348777770996094,1456002775.9896564483642578125,7856
224,1456002776.11561727523803710938,1456002776.11583256721496582031,7880
225,1456002776.24201726913452148438,1456002776.24223208427429199219,7888
226,1456002776.36852574348449707031,1456002776.36891317367553710938,7888
227,1456002776.50228714942932128906,1456002776.50250864028930664062,7872
228,1456002776.62797021865844726562,1456002776.62819266319274902344,7840
229,1456002776.75306463241577148438,1456002776.75329613685607910156,7792
230,1456002776.87729740142822265625,1456002776.87751817703247070312,7736
231,1456002777.00068330764770507812,1456002777.00091242790222167969,7664
232,1456002777.1227359771728515625,1456002777.122959136962890625,7584
233,1456002777.24364995956420898438,1456002777.24387383460998535156,7496
234,1456002777.36306405067443847656,1456002777.36328363418579101562,7392
235,1456002777.481067657470703125,1456002777.48129606246948242188,7288
236,1456002777.59740424156188964844,1456002777.597621917724609375,7168
237,1456002777.71231055259704589844,1456002777.71253132820129394531,7056
238,1456002777.82508993148803710938,1456002777.82531571388244628906,6928
239,1456002777.93632054328918457031,1456002777.93655347824096679688,6800
240,1456002778.04534292221069335938,1456002778.04556632041931152344,6672
241,1456002778.15290665626525878906,1456002778.15313553810119628906,6544
242,1456002778.25863409042358398438,1456002778.25885176658630371094,6416
243,1456002778.36251592636108398438,1456002778.36292505264282226562,6288
244,1456002778.4646968841552734375,1456002778.46491789817810058594,6152
245,1456002778.56580996513366699219,1456002778.56602811813354492188,6032
246,1456002778.66728806495666503906,1456002778.66751027107238769531,5904
247,1456002778.76904582977294921875,1456002778.7692661285400390625,5776
248,1456002778.86953973770141601562,1456002778.8697662353515625,5648
249,1456002778.96997523307800292969,1456002778.97021365165710449219,5528
250,1456002779.07113051414489746094,1456002779.07135415077209472656,5408
251,1456002779.17201900482177734375,1456002779.17224574089050292969,5296
252,1456002779.27317142486572265625,1456002779.27339339256286621094,5184
253,1456002779.37256860733032226562,1456002779.37279582023620605469,5080
254,1456002779.47213315963745117188,1456002779.472354888916015625,4976
255,1456002779.57242941856384277344,1456002779.57266569137573242188,4880
256,1456002779.67506122589111328125,1456002779.675472259521484375,4792
257,1456002779.78328680992126464844,1456002779.78350806236267089844,4696
258,1456002779.88302755355834960938,1456002779.88325047492980957031,4624
259,1456002779.98357295989990234375,1456002779.98380708694458007812,4552
260,1456002780.08375835418701171875,1456002780.08398079872131347656,4488
261,1456002780.18633627891540527344,1456002780.18655538558959960938,4440
262,1456002780.28771829605102539062,1456002780.28793835639953613281,4392
263,1456002780.38748002052307128906,1456002780.38770127296447753906,4352
264,1456002780.48777675628662109375,1456002780.48799872398376464844,4328
265,1456002780.58923411369323730469,1456002780.5894565582275390625,4304
266,1456002780.69006490707397460938,1456002780.69028520584106445312,4296
267,1456002780.79062342643737792969,1456002780.79083919525146484375,4296
268,1456002780.88964986801147460938,1456002780.88986372947692871094,4296
269,1456002780.98847270011901855469,1456002780.98869609832763671875,4312
270,1456002781.08898520469665527344,1456002781.08920907974243164062,4336
271,1456002781.18910741806030273438,1456002781.18943953514099121094,4368
272,1456002781.28926110267639160156,1456002781.28947353363037109375,4408
273,1456002781.38766026496887207031,1456002781.38787531852722167969,4456
274,1456002781.48707437515258789062,1456002781.48728680610656738281,4520
275,1456002781.586818695068359375,1456002781.58704495429992675781,4584
276,1456002781.68713855743408203125,1456002781.68735027313232421875,4656
