id, time (s), size (bits)
0,1455552662.83159136772155761719,392
1,1455552662.88187551498413085938,392
2,1455552662.93110966682434082031,392
3,1455552662.98195481300354003906,392
4,1455552663.03168344497680664062,384
5,1455552663.08238911628723144531,384
6,1455552663.13240933418273925781,384
7,1455552663.18174147605895996094,384
8,1455552663.23125672340393066406,376
9,1455552663.28166151046752929688,376
10,1455552663.33148694038391113281,376
11,1455552663.38120794296264648438,376
12,1455552663.430934906005859375,376
13,1455552663.48186445236206054688,376
14,1455552663.5315113067626953125,376
15,1455552663.58143401145935058594,376
16,1455552663.630985260009765625,376
17,1455552663.68194150924682617188,376
18,1455552663.73174977302551269531,376
19,1455552663.78149914741516113281,376
20,1455552663.83132910728454589844,376
21,1455552663.88089704513549804688,376
22,1455552663.93156695365905761719,376
23,1455552663.98111414909362792969,376
24,1455552664.03198957443237304688,376
25,1455552664.0816059112548828125,376
26,1455552664.13145136833190917969,376
27,1455552664.18112087249755859375,376
28,1455552664.23186182975769042969,376
29,1455552664.28197193145751953125,384
30,1455552664.33140540122985839844,384
31,1455552664.38124537467956542969,384
32,1455552664.43185687065124511719,384
33,1455552664.48177051544189453125,384
34,1455552664.53148031234741210938,392
35,1455552664.58107829093933105469,392
36,1455552664.63180971145629882812,392
37,1455552664.68157029151916503906,400
38,1455552664.73126268386840820312,400
39,1455552664.78187203407287597656,400
40,1455552664.83171892166137695312,408
41,1455552664.88131642341613769531,408
42,1455552664.93096184730529785156,408
43,1455552664.98160696029663085938,416
44,1455552665.03138184547424316406,416
45,1455552665.0810089111328125,424
46,1455552665.13177156448364257812,424
47,1455552665.18144536018371582031,424
48,1455552665.23113393783569335938,432
49,1455552665.28098559379577636719,432
50,1455552665.33163142204284667969,440
51,1455552665.38138985633850097656,440
52,1455552665.4312419891357421875,448
53,1455552665.48203516006469726562,448
54,1455552665.53165602684020996094,456
55,1455552665.58137226104736328125,456
56,1455552665.63092732429504394531,464
57,1455552665.6814975738525390625,464
58,1455552665.73134875297546386719,472
59,1455552665.78089189529418945312,472
60,1455552665.83163619041442871094,480
61,1455552665.88125061988830566406,480
62,1455552665.93199014663696289062,488
63,1455552665.98163557052612304688,488
64,1455552666.03145194053649902344,496
65,1455552666.08142328262329101562,496
66,1455552666.13100838661193847656,504
67,1455552666.18190050125122070312,504
68,1455552666.23168587684631347656,512
69,1455552666.28146481513977050781,512
70,1455552666.33093905448913574219,520
71,1455552666.38173842430114746094,520
72,1455552666.43133592605590820312,528
73,1455552666.48215484619140625,528
74,1455552666.53187608718872070312,536
75,1455552666.58143472671508789062,536
76,1455552666.63117098808288574219,544
77,1455552666.68179464340209960938,544
78,1455552666.73163866996765136719,552
79,1455552666.78124880790710449219,552
80,1455552666.83197450637817382812,560
81,1455552666.88162517547607421875,560
82,1455552666.93115234375,568
83,1455552666.98090910911560058594,568
84,1455552667.03152775764465332031,568
85,1455552667.081333160400390625,576
86,1455552667.13197088241577148438,576
87,1455552667.18174505233764648438,584
88,1455552667.23130941390991210938,584
89,1455552667.28208589553833007812,584
90,1455552667.33164811134338378906,592
91,1455552667.38149380683898925781,592
92,1455552667.43112421035766601562,592
93,1455552667.48175549507141113281,592
94,1455552667.53151822090148925781,600
95,1455552667.5811634063720703125,600
96,1455552667.63196110725402832031,600
97,1455552667.68159961700439453125,600
98,1455552667.73155927658081054688,608
99,1455552667.78129100799560546875,608
100,1455552667.8320713043212890625,608
101,1455552667.88185644149780273438,608
102,1455552667.93158054351806640625,608
103,1455552667.98130846023559570312,608
104,1455552668.03196072578430175781,608
105,1455552668.081714630126953125,608
106,1455552668.1313037872314453125,608
107,1455552668.18110108375549316406,608
108,1455552668.231754302978515625,608
109,1455552668.28151488304138183594,608
110,1455552668.33124566078186035156,608
111,1455552668.38186120986938476562,608
112,1455552668.43171167373657226562,608
113,1455552668.48135304450988769531,608
114,1455552668.53110194206237792969,608
115,1455552668.58180165290832519531,608
116,1455552668.63169693946838378906,608
117,1455552668.68146300315856933594,608
118,1455552668.7312221527099609375,608
119,1455552668.78189492225646972656,600
120,1455552668.83143186569213867188,600
121,1455552668.88118505477905273438,600
122,1455552668.93175339698791503906,600
123,1455552668.98152685165405273438,600
124,1455552669.03113508224487304688,592
125,1455552669.08195972442626953125,592
126,1455552669.131649017333984375,592
127,1455552669.18137860298156738281,584
128,1455552669.23114705085754394531,584
129,1455552669.28135013580322265625,584
130,1455552669.33115100860595703125,576
131,1455552669.3817844390869140625,576
132,1455552669.43158316612243652344,576
133,1455552669.48125362396240234375,568
134,1455552669.53214049339294433594,568
135,1455552669.58175015449523925781,560
136,1455552669.63155627250671386719,560
137,1455552669.68112897872924804688,560
138,1455552669.73181223869323730469,552
139,1455552669.78156948089599609375,552
140,1455552669.83123683929443359375,544
141,1455552669.88107967376708984375,544
142,1455552669.93157935142517089844,536
143,1455552669.98135304450988769531,536
144,1455552670.03200125694274902344,528
145,1455552670.08180904388427734375,528
146,1455552670.13150048255920410156,520
147,1455552670.18128824234008789062,520
148,1455552670.23111057281494140625,512
149,1455552670.28165292739868164062,512
150,1455552670.33144783973693847656,504
151,1455552670.38095426559448242188,504
152,1455552670.43160533905029296875,496
153,1455552670.48118114471435546875,496
154,1455552670.53188180923461914062,488
155,1455552670.58143067359924316406,488
156,1455552670.63093447685241699219,480
157,1455552670.68174386024475097656,480
158,1455552670.73130154609680175781,472
159,1455552670.78112626075744628906,472
160,1455552670.83171796798706054688,464
161,1455552670.8815898895263671875,464
162,1455552670.9311237335205078125,456
163,1455552670.98186016082763671875,456
164,1455552671.0315303802490234375,448
165,1455552671.08107709884643554688,448
166,1455552671.1318912506103515625,440
167,1455552671.18148279190063476562,440
168,1455552671.23126125335693359375,432
169,1455552671.28186678886413574219,432
170,1455552671.33154582977294921875,424
171,1455552671.38117551803588867188,424
172,1455552671.43190336227416992188,416
173,1455552671.48160576820373535156,416
174,1455552671.53120899200439453125,416
175,1455552671.58091259002685546875,408
176,1455552671.63158655166625976562,408
177,1455552671.68155980110168457031,400
178,1455552671.73120045661926269531,400
179,1455552671.78200030326843261719,400
180,1455552671.83163738250732421875,392
181,1455552671.88135790824890136719,392
182,1455552671.93087649345397949219,392
183,1455552671.98152256011962890625,392
184,1455552672.03140425682067871094,384
185,1455552672.08095765113830566406,384
186,1455552672.13173842430114746094,384
187,1455552672.1813201904296875,384
188,1455552672.23207163810729980469,376
189,1455552672.28171634674072265625,376
190,1455552672.33133029937744140625,376
191,1455552672.3808612823486328125,376
192,1455552672.43136572837829589844,376
193,1455552672.48126292228698730469,376
194,1455552672.53089261054992675781,376
195,1455552672.58164858818054199219,376
196,1455552672.63127923011779785156,376
197,1455552672.68206119537353515625,376
198,1455552672.73168015480041503906,376
199,1455552672.78138947486877441406,376
200,1455552672.83193922042846679688,376
201,1455552672.88157010078430175781,376
202,1455552672.93139958381652832031,376
203,1455552672.98089861869812011719,376
204,1455552673.03174567222595214844,376
205,1455552673.08140683174133300781,376
206,1455552673.13111233711242675781,376
207,1455552673.18177366256713867188,376
208,1455552673.23145246505737304688,376
209,1455552673.28109598159790039062,384
210,1455552673.33180165290832519531,384
211,1455552673.38189077377319335938,384
212,1455552673.43150973320007324219,384
213,1455552673.4812221527099609375,384
214,1455552673.53173828125,392
215,1455552673.58146357536315917969,392
216,1455552673.63107919692993164062,392
217,1455552673.68187618255615234375,400
218,1455552673.73162436485290527344,400
219,1455552673.78121185302734375,400
220,1455552673.83092355728149414062,408
221,1455552673.88156652450561523438,408
222,1455552673.93128943443298339844,408
223,1455552673.98188257217407226562,416
224,1455552674.03174591064453125,416
225,1455552674.08137679100036621094,424
226,1455552674.1311168670654296875,424
227,1455552674.18179798126220703125,424
228,1455552674.23136162757873535156,432
229,1455552674.28112721443176269531,432
230,1455552674.33171558380126953125,440
231,1455552674.38152146339416503906,440
232,1455552674.430980682373046875,448
233,1455552674.48175024986267089844,448
234,1455552674.53135776519775390625,456
235,1455552674.58202600479125976562,456
236,1455552674.63163995742797851562,464
237,1455552674.68124794960021972656,464
238,1455552674.73092532157897949219,472
239,1455552674.78150892257690429688,472
240,1455552674.83129024505615234375,480
241,1455552674.88089990615844726562,480
242,1455552674.93167018890380859375,488
243,1455552674.98134064674377441406,488
244,1455552675.0321445465087890625,496
245,1455552675.08181071281433105469,496
246,1455552675.13145732879638671875,504
247,1455552675.18123173713684082031,504
248,1455552675.23184537887573242188,512
249,1455552675.28156709671020507812,512
250,1455552675.3311824798583984375,520
251,1455552675.38194966316223144531,520
252,1455552675.43155980110168457031,528
253,1455552675.48136782646179199219,528
254,1455552675.53088688850402832031,536
255,1455552675.5814990997314453125,536
256,1455552675.63136219978332519531,544
257,1455552675.68093276023864746094,544
258,1455552675.73168468475341796875,552
259,1455552675.78129029273986816406,552
260,1455552675.83200836181640625,560
261,1455552675.88156652450561523438,560
262,1455552675.93106532096862792969,568
263,1455552675.98169827461242675781,568
264,1455552676.0312976837158203125,568
265,1455552676.08101153373718261719,576
266,1455552676.131633758544921875,576
267,1455552676.18139433860778808594,584
268,1455552676.23096585273742675781,584
269,1455552676.28185439109802246094,584
270,1455552676.33142638206481933594,592
271,1455552676.38116550445556640625,592
272,1455552676.43192887306213378906,592
273,1455552676.4815692901611328125,592
274,1455552676.53136515617370605469,600
275,1455552676.58184933662414550781,600
276,1455552676.63162970542907714844,600
277,1455552676.6811962127685546875,600
278,1455552676.73201322555541992188,608
279,1455552676.78164172172546386719,608
280,1455552676.83137536048889160156,608
281,1455552676.88092017173767089844,608
282,1455552676.93140006065368652344,608
283,1455552676.98116660118103027344,608
284,1455552677.03160452842712402344,608
285,1455552677.08135223388671875,608
286,1455552677.1308917999267578125,608
287,1455552677.18173503875732421875,608
288,1455552677.23157238960266113281,608
289,1455552677.28128933906555175781,608
290,1455552677.33179020881652832031,608
291,1455552677.38145470619201660156,608
292,1455552677.43121647834777832031,608
293,1455552677.48183774948120117188,608
294,1455552677.53160357475280761719,608
295,1455552677.58120965957641601562,608
296,1455552677.6320781707763671875,608
297,1455552677.68175745010375976562,608
298,1455552677.73148751258850097656,608
299,1455552677.78112363815307617188,600
300,1455552677.83180141448974609375,600
301,1455552677.88153672218322753906,600
302,1455552677.93097233772277832031,600
303,1455552677.98091197013854980469,600
304,1455552678.0315151214599609375,592
305,1455552678.08122658729553222656,592
306,1455552678.13190221786499023438,592
307,1455552678.18166661262512207031,584
308,1455552678.23128485679626464844,584
309,1455552678.28195524215698242188,584
310,1455552678.33172678947448730469,576
311,1455552678.38131427764892578125,576
312,1455552678.43119931221008300781,576
313,1455552678.48179912567138671875,568
314,1455552678.53158235549926757812,568
315,1455552678.58122348785400390625,560
316,1455552678.63203167915344238281,560
317,1455552678.68171358108520507812,560
318,1455552678.73126387596130371094,552
319,1455552678.78114604949951171875,552
320,1455552678.83175373077392578125,544
321,1455552678.88163042068481445312,544
322,1455552678.93121767044067382812,536
323,1455552678.98197317123413085938,536
324,1455552679.03193950653076171875,528
325,1455552679.08160805702209472656,528
326,1455552679.13127422332763671875,520
327,1455552679.18188238143920898438,520
328,1455552679.231647491455078125,512
329,1455552679.28121805191040039062,512
330,1455552679.33191633224487304688,504
331,1455552679.38153028488159179688,504
332,1455552679.43122816085815429688,496
333,1455552679.48091197013854980469,496
334,1455552679.53177237510681152344,488
335,1455552679.58172655105590820312,488
336,1455552679.63133096694946289062,480
337,1455552679.68114376068115234375,480
338,1455552679.73183560371398925781,472
339,1455552679.78169679641723632812,472
340,1455552679.83129858970642089844,464
341,1455552679.88211107254028320312,464
342,1455552679.93174457550048828125,456
343,1455552679.981433868408203125,456
344,1455552680.03100657463073730469,448
345,1455552680.08160805702209472656,448
346,1455552680.131549835205078125,440
347,1455552680.18112444877624511719,440
348,1455552680.23192262649536132812,432
349,1455552680.28158974647521972656,432
350,1455552680.33142328262329101562,424
351,1455552680.38106060028076171875,424
352,1455552680.43173623085021972656,416
353,1455552680.48130011558532714844,416
354,1455552680.53195500373840332031,416
355,1455552680.58177065849304199219,408
356,1455552680.631465911865234375,408
357,1455552680.68121981620788574219,400
358,1455552680.73184657096862792969,400
359,1455552680.78157591819763183594,400
360,1455552680.83122920989990234375,392
361,1455552680.88197922706604003906,392
362,1455552680.93163895606994628906,392
363,1455552680.98115015029907226562,392
364,1455552681.03095340728759765625,384
365,1455552681.08168315887451171875,384
366,1455552681.13169360160827636719,384
367,1455552681.18130970001220703125,384
368,1455552681.2320957183837890625,376
369,1455552681.28169584274291992188,376
370,1455552681.33143353462219238281,376
371,1455552681.38105010986328125,376
372,1455552681.43159246444702148438,376
373,1455552681.48139977455139160156,376
374,1455552681.53093266487121582031,376
375,1455552681.58165645599365234375,376
376,1455552681.6313114166259765625,376
377,1455552681.68195509910583496094,376
378,1455552681.73165750503540039062,376
379,1455552681.78144001960754394531,376
380,1455552681.83118677139282226562,376
381,1455552681.88184666633605957031,376
382,1455552681.93165898323059082031,376
383,1455552681.98117852210998535156,376
384,1455552682.03199529647827148438,376
385,1455552682.0816364288330078125,376
386,1455552682.13170027732849121094,376
387,1455552682.18133449554443359375,376
388,1455552682.23214411735534667969,376
389,1455552682.28186321258544921875,384
390,1455552682.33142900466918945312,384
391,1455552682.3810710906982421875,384
392,1455552682.43169450759887695312,384
393,1455552682.48135662078857421875,384
394,1455552682.53200650215148925781,392
395,1455552682.58160233497619628906,392
396,1455552682.63183760643005371094,392
397,1455552682.6816692352294921875,400
398,1455552682.73137211799621582031,400
399,1455552682.78136658668518066406,400
400,1455552682.83116865158081054688,408
401,1455552682.88183736801147460938,408
402,1455552682.931598663330078125,408
403,1455552682.98122501373291015625,416
404,1455552683.03202462196350097656,416
405,1455552683.08168625831604003906,424
406,1455552683.13156056404113769531,424
407,1455552683.18122887611389160156,424
408,1455552683.231830596923828125,432
409,1455552683.28144955635070800781,432
410,1455552683.33091711997985839844,440
411,1455552683.38187003135681152344,440
412,1455552683.43172907829284667969,448
413,1455552683.48153257369995117188,448
414,1455552683.53122234344482421875,456
415,1455552683.58182311058044433594,456
416,1455552683.63154196739196777344,464
417,1455552683.6810131072998046875,464
418,1455552683.73183894157409667969,472
419,1455552683.7808990478515625,472
420,1455552683.83163809776306152344,480
421,1455552683.881221771240234375,480
422,1455552683.93208551406860351562,488
423,1455552683.981746673583984375,488
424,1455552684.03148579597473144531,496
425,1455552684.08118009567260742188,496
426,1455552684.13196992874145507812,504
427,1455552684.18086791038513183594,504
428,1455552684.23151111602783203125,512
429,1455552684.28126811981201171875,512
430,1455552684.33185458183288574219,520
431,1455552684.3816852569580078125,520
432,1455552684.431316375732421875,528
433,1455552684.48205113410949707031,528
434,1455552684.53171944618225097656,536
435,1455552684.58133554458618164062,536
436,1455552684.63113045692443847656,544
437,1455552684.68187713623046875,544
438,1455552684.73169469833374023438,552
439,1455552684.781406402587890625,552
440,1455552684.83148360252380371094,560
441,1455552684.88117909431457519531,560
442,1455552684.93193292617797851562,568
443,1455552684.98184466361999511719,568
444,1455552685.03150248527526855469,568
445,1455552685.08130168914794921875,576
446,1455552685.13088822364807128906,576
447,1455552685.18157958984375,584
448,1455552685.23123145103454589844,584
449,1455552685.28202986717224121094,584
450,1455552685.33164215087890625,592
451,1455552685.38136649131774902344,592
452,1455552685.43091678619384765625,592
453,1455552685.48155879974365234375,592
454,1455552685.53135228157043457031,600
455,1455552685.58185696601867675781,600
456,1455552685.6318645477294921875,600
457,1455552685.68146347999572753906,600
458,1455552685.73130059242248535156,608
459,1455552685.78194952011108398438,608
460,1455552685.83173274993896484375,608
461,1455552685.88148355484008789062,608
462,1455552685.93095040321350097656,608
463,1455552685.98171949386596679688,608
464,1455552686.0313720703125,608
465,1455552686.08129644393920898438,608
466,1455552686.13198304176330566406,608
467,1455552686.18185353279113769531,608
468,1455552686.231510162353515625,608
469,1455552686.28106522560119628906,608
470,1455552686.33172631263732910156,608
471,1455552686.3812770843505859375,608
472,1455552686.43097448348999023438,608
473,1455552686.48173856735229492188,608
474,1455552686.53186583518981933594,608
475,1455552686.581409454345703125,608
476,1455552686.63111114501953125,608
477,1455552686.68175959587097167969,608
478,1455552686.73143458366394042969,608
479,1455552686.7809658050537109375,600
480,1455552686.83156490325927734375,600
481,1455552686.88132643699645996094,600
482,1455552686.931888580322265625,600
483,1455552686.98173618316650390625,600
484,1455552687.03137350082397460938,592
485,1455552687.08206057548522949219,592
486,1455552687.13165211677551269531,592
487,1455552687.18150472640991210938,584
488,1455552687.23116421699523925781,584
489,1455552687.28195285797119140625,584
490,1455552687.33171415328979492188,576
491,1455552687.38131928443908691406,576
492,1455552687.43114209175109863281,576
493,1455552687.48178911209106445312,568
494,1455552687.53156304359436035156,568
495,1455552687.58123850822448730469,560
496,1455552687.63203334808349609375,560
497,1455552687.68171405792236328125,560
498,1455552687.73128914833068847656,552
499,1455552687.78116869926452636719,552
500,1455552687.83184885978698730469,544
501,1455552687.881656646728515625,544
502,1455552687.9313335418701171875,536
503,1455552687.98219823837280273438,536
504,1455552688.03186821937561035156,528
