id, time (s), size (bits)
0,1455485268.35664582252502441406,456
1,1455485268.40623164176940917969,392
2,1455485268.45679235458374023438,376
3,1455485268.50651216506958007812,416
4,1455485268.55671834945678710938,496
5,1455485268.60698771476745605469,568
6,1455485268.65847420692443847656,608
7,1455485268.70670318603515625,592
8,1455485268.7560882568359375,528
9,1455485268.8066082000732421875,448
10,1455485268.856311798095703125,384
11,1455485268.90687417984008789062,376
12,1455485268.95680308341979980469,424
13,1455485269.00647139549255371094,504
14,1455485269.05603551864624023438,576
15,1455485269.10686039924621582031,608
16,1455485269.15644907951354980469,592
17,1455485269.20676851272583007812,520
18,1455485269.2565784454345703125,440
19,1455485269.30676221847534179688,384
20,1455485269.356044769287109375,376
21,1455485269.40604853630065917969,432
22,1455485269.456707000732421875,512
23,1455485269.50649046897888183594,584
24,1455485269.55579066276550292969,608
25,1455485269.60604166984558105469,584
26,1455485269.6561641693115234375,512
27,1455485269.70613265037536621094,432
28,1455485269.75631809234619140625,376
29,1455485269.80687570571899414062,384
30,1455485269.85627770423889160156,440
31,1455485269.90964221954345703125,528
32,1455485269.95709204673767089844,592
33,1455485270.00702404975891113281,608
34,1455485270.056793212890625,576
35,1455485270.10607647895812988281,504
36,1455485270.15584397315979003906,424
37,1455485270.20668292045593261719,376
38,1455485270.25573015213012695312,384
39,1455485270.30648303031921386719,448
40,1455485270.35570740699768066406,528
41,1455485270.40872979164123535156,600
42,1455485270.45659637451171875,608
43,1455485270.50728487968444824219,568
44,1455485270.55639386177062988281,488
45,1455485270.60621595382690429688,416
46,1455485270.65630292892456054688,376
47,1455485270.70757007598876953125,392
48,1455485270.75651216506958007812,456
49,1455485270.80669522285461425781,536
50,1455485270.85665369033813476562,600
51,1455485270.90610432624816894531,608
52,1455485270.95580291748046875,560
53,1455485271.00805163383483886719,480
54,1455485271.05611157417297363281,408
55,1455485271.10630893707275390625,376
56,1455485271.15632796287536621094,392
57,1455485271.2088794708251953125,472
58,1455485271.25600790977478027344,544
59,1455485271.30797600746154785156,608
60,1455485271.35815382003784179688,608
61,1455485271.40771460533142089844,552
62,1455485271.45692491531372070312,472
63,1455485271.50579071044921875,400
64,1455485271.556209564208984375,376
65,1455485271.606048583984375,400
66,1455485271.65593814849853515625,472
67,1455485271.70597600936889648438,552
68,1455485271.75633525848388671875,608
69,1455485271.80889105796813964844,600
70,1455485271.85611701011657714844,544
71,1455485271.9069671630859375,464
72,1455485271.95582056045532226562,392
73,1455485272.00656771659851074219,376
74,1455485272.05580163002014160156,408
75,1455485272.10578203201293945312,480
76,1455485272.15690588951110839844,568
77,1455485272.20794224739074707031,608
78,1455485272.25606703758239746094,600
79,1455485272.30610418319702148438,536
80,1455485272.35640692710876464844,456
81,1455485272.40680527687072753906,392
82,1455485272.45577359199523925781,376
83,1455485272.50775456428527832031,416
84,1455485272.55654597282409667969,496
85,1455485272.60738229751586914062,576
86,1455485272.65674352645874023438,608
87,1455485272.70689892768859863281,592
88,1455485272.75785136222839355469,528
89,1455485272.806209564208984375,448
90,1455485272.856048583984375,384
91,1455485272.90621519088745117188,376
92,1455485272.95670866966247558594,424
93,1455485273.00568437576293945312,504
94,1455485273.05647969245910644531,576
95,1455485273.10631132125854492188,608
96,1455485273.15762281417846679688,584
97,1455485273.20683717727661132812,520
98,1455485273.25651335716247558594,440
99,1455485273.30662631988525390625,384
100,1455485273.35657453536987304688,376
101,1455485273.40657758712768554688,432
102,1455485273.45598006248474121094,512
103,1455485273.50781488418579101562,584
104,1455485273.55638885498046875,608
105,1455485273.60758066177368164062,584
106,1455485273.6569042205810546875,512
107,1455485273.70673656463623046875,424
108,1455485273.75771427154541015625,376
109,1455485273.80700349807739257812,384
110,1455485273.85658764839172363281,440
111,1455485273.90682053565979003906,520
112,1455485273.95625996589660644531,592
113,1455485274.00676250457763671875,504
114,1455485274.05598926544189453125,576
115,1455485274.10588431358337402344,608
116,1455485274.15660834312438964844,592
117,1455485274.20750689506530761719,520
118,1455485274.25924205780029296875,432
119,1455485274.30665230751037597656,384
120,1455485274.35680413246154785156,376
121,1455485274.40641069412231445312,432
122,1455485274.4561557769775390625,512
123,1455485274.506137847900390625,584
124,1455485274.55634784698486328125,608
125,1455485274.60624194145202636719,584
126,1455485274.65596151351928710938,512
127,1455485274.70675945281982421875,424
128,1455485274.75667333602905273438,376
129,1455485274.80736064910888671875,384
130,1455485274.85677409172058105469,440
131,1455485274.90627551078796386719,520
132,1455485274.95574474334716796875,592
133,1455485275.00707745552062988281,608
134,1455485275.05660462379455566406,576
135,1455485275.10657477378845214844,496
136,1455485275.15668797492980957031,416
137,1455485275.20636343955993652344,376
138,1455485275.25581598281860351562,384
139,1455485275.30630040168762207031,448
140,1455485275.35687589645385742188,528
141,1455485275.40616178512573242188,592
142,1455485275.45570778846740722656,608
143,1455485275.50654935836791992188,568
144,1455485275.55874013900756835938,488
145,1455485275.6059551239013671875,416
146,1455485275.65666484832763671875,376
147,1455485275.7069759368896484375,392
148,1455485275.75621247291564941406,456
149,1455485275.80688428878784179688,536
150,1455485275.85624146461486816406,600
151,1455485275.90686321258544921875,608
152,1455485275.95691514015197753906,560
153,1455485276.00639581680297851562,480
154,1455485276.0592098236083984375,400
155,1455485276.10768079757690429688,376
156,1455485276.15629673004150390625,392
157,1455485276.20580959320068359375,464
158,1455485276.25667238235473632812,552
159,1455485276.30705690383911132812,600
160,1455485276.35638976097106933594,608
161,1455485276.40639400482177734375,552
162,1455485276.4557056427001953125,472
163,1455485276.50582051277160644531,400
164,1455485276.55632257461547851562,376
165,1455485276.60671520233154296875,400
166,1455485276.65754532814025878906,480
167,1455485276.70664715766906738281,560
168,1455485276.75669026374816894531,608
169,1455485276.80759525299072265625,600
170,1455485276.85593438148498535156,544
171,1455485276.90630364418029785156,464
172,1455485276.95705342292785644531,392
173,1455485277.00680708885192871094,376
174,1455485277.05670666694641113281,408
175,1455485277.10639929771423339844,480
176,1455485277.15631866455078125,560
177,1455485277.2067127227783203125,608
178,1455485277.25608777999877929688,600
179,1455485277.30671906471252441406,536
180,1455485277.35782837867736816406,448
181,1455485277.40596675872802734375,392
182,1455485277.456249237060546875,376
183,1455485277.5062732696533203125,416
184,1455485277.55588102340698242188,496
185,1455485277.60792613029479980469,576
186,1455485277.6564922332763671875,608
187,1455485277.70575451850891113281,592
188,1455485277.75633668899536132812,528
189,1455485277.80656409263610839844,448
190,1455485277.85631680488586425781,384
191,1455485277.90763497352600097656,376
192,1455485277.95769214630126953125,424
193,1455485278.00692439079284667969,504
194,1455485278.056186676025390625,576
195,1455485278.10614871978759765625,608
196,1455485278.15603685379028320312,592
197,1455485278.20628643035888671875,520
198,1455485278.25628042221069335938,440
199,1455485278.30685281753540039062,384
200,1455485278.35630917549133300781,376
201,1455485278.40675187110900878906,432
202,1455485278.45615911483764648438,512
203,1455485278.5063076019287109375,584
204,1455485278.55636882781982421875,608
205,1455485278.60776185989379882812,584
206,1455485278.65682339668273925781,512
207,1455485278.70574855804443359375,432
208,1455485278.75586199760437011719,376
209,1455485278.80855894088745117188,384
210,1455485278.85658597946166992188,440
211,1455485278.90647125244140625,520
212,1455485278.95754933357238769531,592
213,1455485279.00649166107177734375,608
214,1455485279.05584859848022460938,576
215,1455485279.10677099227905273438,496
216,1455485279.15638804435729980469,424
217,1455485279.20669674873352050781,376
218,1455485279.25594115257263183594,384
219,1455485279.30640363693237304688,448
220,1455485279.35597753524780273438,528
221,1455485279.40708255767822265625,592
222,1455485279.457958221435546875,608
223,1455485279.50572514533996582031,568
224,1455485279.55646371841430664062,488
225,1455485279.606227874755859375,416
226,1455485279.65577435493469238281,376
227,1455485279.70666265487670898438,392
228,1455485279.7559814453125,456
229,1455485279.80756497383117675781,544
230,1455485279.85676288604736328125,600
231,1455485279.90905213356018066406,608
232,1455485279.95681118965148925781,560
233,1455485280.00654864311218261719,480
234,1455485280.05655169486999511719,408
235,1455485280.10640692710876464844,376
236,1455485280.15598320960998535156,392
237,1455485280.20690393447875976562,464
238,1455485280.25643205642700195312,544
239,1455485280.30843830108642578125,608
240,1455485280.35584211349487304688,608
241,1455485280.4064922332763671875,552
242,1455485280.45614552497863769531,472
243,1455485280.50651264190673828125,400
244,1455485280.556255340576171875,376
245,1455485280.60623788833618164062,400
246,1455485280.65617609024047851562,472
247,1455485280.70573544502258300781,552
248,1455485280.75647497177124023438,608
249,1455485280.80634975433349609375,600
250,1455485280.85688638687133789062,544
251,1455485280.90806293487548828125,456
252,1455485280.95765376091003417969,392
253,1455485281.00603747367858886719,376
254,1455485281.05601620674133300781,408
255,1455485281.10626006126403808594,480
256,1455485281.15603590011596679688,560
257,1455485281.20663309097290039062,608
258,1455485281.2564334869384765625,600
259,1455485281.30658960342407226562,536
260,1455485281.35603117942810058594,456
261,1455485281.40661978721618652344,392
262,1455485281.4577159881591796875,376
263,1455485281.5083789825439453125,416
264,1455485281.55609154701232910156,496
265,1455485281.60639834403991699219,568
266,1455485281.65650629997253417969,608
267,1455485281.70589089393615722656,592
268,1455485281.75852632522583007812,528
269,1455485281.80625081062316894531,448
270,1455485281.85808014869689941406,384
271,1455485281.90700697898864746094,376
272,1455485281.95639181137084960938,424
273,1455485282.00633072853088378906,504
274,1455485282.05661630630493164062,576
275,1455485282.1063861846923828125,608
276,1455485282.15611696243286132812,592
277,1455485282.20625638961791992188,520
278,1455485282.25620245933532714844,440
279,1455485282.30640554428100585938,384
280,1455485282.35610795021057128906,376
281,1455485282.40628886222839355469,432
282,1455485282.45616269111633300781,512
283,1455485282.50608015060424804688,584
284,1455485282.55599999427795410156,608
285,1455485282.60630059242248535156,584
286,1455485282.65606856346130371094,512
287,1455485282.70638775825500488281,432
288,1455485282.75625348091125488281,376
289,1455485282.80588531494140625,384
290,1455485282.85604119300842285156,440
291,1455485282.90861773490905761719,528
292,1455485282.95619535446166992188,592
293,1455485283.00719046592712402344,504
294,1455485283.05645489692687988281,576
295,1455485283.10598659515380859375,608
296,1455485283.15613627433776855469,592
297,1455485283.20615553855895996094,520
298,1455485283.25604772567749023438,440
299,1455485283.3062114715576171875,384
300,1455485283.35702848434448242188,376
301,1455485283.40669560432434082031,432
302,1455485283.45578908920288085938,512
303,1455485283.5065097808837890625,584
304,1455485283.55614757537841796875,608
305,1455485283.60701107978820800781,584
306,1455485283.65638041496276855469,512
307,1455485283.70615029335021972656,432
308,1455485283.75626921653747558594,376
309,1455485283.80595040321350097656,384
310,1455485283.85619258880615234375,440
311,1455485283.90613436698913574219,520
312,1455485283.95639824867248535156,592
313,1455485284.00758862495422363281,608
314,1455485284.05647635459899902344,576
315,1455485284.10610055923461914062,504
316,1455485284.15629243850708007812,424
317,1455485284.20639967918395996094,376
318,1455485284.25647401809692382812,384
319,1455485284.30581259727478027344,448
320,1455485284.35577130317687988281,528
321,1455485284.40606212615966796875,592
322,1455485284.45623898506164550781,608
323,1455485284.506114959716796875,568
324,1455485284.55645418167114257812,488
325,1455485284.60680413246154785156,416
326,1455485284.65664267539978027344,376
327,1455485284.70614695549011230469,392
328,1455485284.75573658943176269531,456
329,1455485284.80642199516296386719,536
330,1455485284.8561115264892578125,600
331,1455485284.90647530555725097656,608
332,1455485284.95676469802856445312,560
333,1455485285.00668025016784667969,480
334,1455485285.05653262138366699219,408
335,1455485285.106731414794921875,376
336,1455485285.15715527534484863281,400
337,1455485285.20655846595764160156,464
338,1455485285.25629925727844238281,544
339,1455485285.30614972114562988281,600
340,1455485285.35689640045166015625,608
341,1455485285.40719199180603027344,552
342,1455485285.45684456825256347656,472
343,1455485285.50672173500061035156,400
344,1455485285.55666446685791015625,376
345,1455485285.60662055015563964844,400
346,1455485285.65694260597229003906,472
347,1455485285.70664000511169433594,560
348,1455485285.75609350204467773438,608
349,1455485285.80644130706787109375,600
350,1455485285.85670113563537597656,544
351,1455485285.906887054443359375,464
352,1455485285.95624136924743652344,392
353,1455485286.00685143470764160156,376
354,1455485286.05645108222961425781,408
355,1455485286.10669374465942382812,488
356,1455485286.1569042205810546875,568
357,1455485286.20671892166137695312,608
358,1455485286.25577020645141601562,600
359,1455485286.30725526809692382812,536
360,1455485286.35849547386169433594,448
361,1455485286.40869951248168945312,384
362,1455485286.45656442642211914062,376
363,1455485286.50632929801940917969,416
364,1455485286.55583262443542480469,496
365,1455485286.60595726966857910156,568
366,1455485286.65582513809204101562,608
367,1455485286.70691084861755371094,592
368,1455485286.75616407394409179688,528
369,1455485286.80661845207214355469,448
370,1455485286.85610795021057128906,384
371,1455485286.9067592620849609375,376
372,1455485286.9557552337646484375,424
373,1455485287.0067596435546875,504
374,1455485287.05586099624633789062,576
375,1455485287.1060886383056640625,608
376,1455485287.15670228004455566406,584
377,1455485287.20680356025695800781,520
378,1455485287.25595951080322265625,440
379,1455485287.3061885833740234375,384
380,1455485287.35664272308349609375,376
381,1455485287.40652251243591308594,432
382,1455485287.45837235450744628906,512
383,1455485287.50619649887084960938,584
384,1455485287.55681967735290527344,608
385,1455485287.60636138916015625,584
386,1455485287.65656113624572753906,512
387,1455485287.70643329620361328125,432
388,1455485287.75684118270874023438,376
389,1455485287.8080234527587890625,384
390,1455485287.85621404647827148438,440
391,1455485287.90711617469787597656,520
392,1455485287.95576834678649902344,592
393,1455485288.00775909423828125,608
394,1455485288.05654311180114746094,576
395,1455485288.10653400421142578125,496
396,1455485288.15613460540771484375,424
397,1455485288.20646977424621582031,376
398,1455485288.25662755966186523438,384
399,1455485288.30631852149963378906,448
400,1455485288.35624861717224121094,528
401,1455485288.40615081787109375,592
402,1455485288.45573091506958007812,608
403,1455485288.506500244140625,568
404,1455485288.55680823326110839844,488
405,1455485288.60706329345703125,416
406,1455485288.65624952316284179688,376
407,1455485288.70701193809509277344,392
408,1455485288.75787758827209472656,456
409,1455485288.80789208412170410156,544
410,1455485288.85673570632934570312,600
411,1455485288.90642881393432617188,608
412,1455485288.95613408088684082031,560
413,1455485289.00751733779907226562,480
414,1455485289.05792188644409179688,408
415,1455485289.10697150230407714844,376
416,1455485289.15622949600219726562,392
417,1455485289.20586085319519042969,464
418,1455485289.25665187835693359375,552
419,1455485289.30684781074523925781,600
420,1455485289.35645174980163574219,608
421,1455485289.40622234344482421875,552
422,1455485289.45617508888244628906,472
423,1455485289.5069904327392578125,400
424,1455485289.5559101104736328125,376
425,1455485289.60699105262756347656,400
426,1455485289.65695095062255859375,472
427,1455485289.70580697059631347656,552
428,1455485289.75622129440307617188,608
429,1455485289.80631470680236816406,600
430,1455485289.85611438751220703125,544
431,1455485289.90647101402282714844,464
432,1455485289.95661997795104980469,392
433,1455485290.00637459754943847656,376
434,1455485290.05624175071716308594,408
435,1455485290.10576367378234863281,480
436,1455485290.15651988983154296875,560
437,1455485290.2065944671630859375,608
438,1455485290.25761270523071289062,600
439,1455485290.30669713020324707031,536
440,1455485290.35684370994567871094,456
441,1455485290.40677475929260253906,392
442,1455485290.45650434494018554688,376
443,1455485290.50626635551452636719,416
444,1455485290.55607438087463378906,496
445,1455485290.60596179962158203125,568
446,1455485290.65629529953002929688,608
447,1455485290.70730686187744140625,592
448,1455485290.75677657127380371094,528
449,1455485290.80649614334106445312,448
450,1455485290.85605645179748535156,384
451,1455485290.90672659873962402344,376
452,1455485290.95641660690307617188,424
453,1455485291.00874829292297363281,504
454,1455485291.05695128440856933594,576
455,1455485291.10814237594604492188,608
456,1455485291.15615773200988769531,592
457,1455485291.20602560043334960938,520
458,1455485291.25571584701538085938,440
459,1455485291.30852842330932617188,376
460,1455485291.35661482810974121094,376
461,1455485291.40666031837463378906,432
462,1455485291.4578227996826171875,512
463,1455485291.50662922859191894531,584
464,1455485291.55580902099609375,608
465,1455485291.6078090667724609375,584
466,1455485291.65686082839965820312,512
467,1455485291.70887827873229980469,424
468,1455485291.757049560546875,376
469,1455485291.80585408210754394531,384
470,1455485291.85633635520935058594,440
471,1455485291.90597486495971679688,520
472,1455485291.95676112174987792969,592
473,1455485292.00848269462585449219,504
474,1455485292.05854487419128417969,584
475,1455485292.10676455497741699219,608
476,1455485292.15630960464477539062,592
477,1455485292.20661783218383789062,520
478,1455485292.25644230842590332031,440
479,1455485292.30674600601196289062,384
480,1455485292.35692334175109863281,376
481,1455485292.40633630752563476562,432
482,1455485292.45633292198181152344,512
483,1455485292.50579977035522460938,584
484,1455485292.55612945556640625,608
485,1455485292.60699558258056640625,584
486,1455485292.65855932235717773438,504
487,1455485292.70677065849304199219,424
488,1455485292.75647568702697753906,376
489,1455485292.80644655227661132812,384
490,1455485292.85673832893371582031,440
491,1455485292.90678882598876953125,520
492,1455485292.95642352104187011719,592
493,1455485293.00679039955139160156,608
494,1455485293.05615282058715820312,576
495,1455485293.10580658912658691406,504
496,1455485293.15659618377685546875,424
497,1455485293.20649623870849609375,376
498,1455485293.25586843490600585938,384
499,1455485293.30634617805480957031,448
500,1455485293.35611200332641601562,528
501,1455485293.40645051002502441406,592
502,1455485293.45675992965698242188,608
503,1455485293.50692081451416015625,568
504,1455485293.55675745010375976562,488
