id, time (s), size (bits)
0,1455485268.14102888107299804688,544
1,1455485268.19160819053649902344,600
2,1455485268.24143123626708984375,608
3,1455485268.29092693328857421875,560
4,1455485268.34177470207214355469,480
5,1455485268.39173007011413574219,400
6,1455485268.44097137451171875,376
7,1455485268.49137544631958007812,400
8,1455485268.5406513214111328125,464
9,1455485268.59109234809875488281,552
10,1455485268.64178299903869628906,608
11,1455485268.6910953521728515625,608
12,1455485268.74315166473388671875,552
13,1455485268.79321360588073730469,464
14,1455485268.84156847000122070312,400
15,1455485268.89181923866271972656,376
16,1455485268.9416980743408203125,400
17,1455485268.99153447151184082031,480
18,1455485269.04162335395812988281,560
19,1455485269.09117436408996582031,608
20,1455485269.14130139350891113281,600
21,1455485269.19114780426025390625,544
22,1455485269.240665435791015625,464
23,1455485269.29133105278015136719,392
24,1455485269.34071850776672363281,376
25,1455485269.39121580123901367188,408
26,1455485269.44120526313781738281,488
27,1455485269.49059796333312988281,568
28,1455485269.54164934158325195312,608
29,1455485269.59153628349304199219,600
30,1455485269.64101886749267578125,536
31,1455485269.6915435791015625,448
32,1455485269.74356341361999511719,384
33,1455485269.791187286376953125,376
34,1455485269.84079241752624511719,416
35,1455485269.89194393157958984375,496
36,1455485269.94106984138488769531,576
37,1455485269.99173140525817871094,608
38,1455485270.0416717529296875,592
39,1455485270.09138035774230957031,528
40,1455485270.14170622825622558594,440
41,1455485270.19168591499328613281,384
42,1455485270.241161346435546875,376
43,1455485270.29189515113830566406,424
44,1455485270.34148263931274414062,504
45,1455485270.39133620262145996094,576
46,1455485270.44142174720764160156,608
47,1455485270.49132537841796875,584
48,1455485270.54182982444763183594,512
49,1455485270.59117531776428222656,432
50,1455485270.64167881011962890625,376
51,1455485270.69113516807556152344,376
52,1455485270.74102306365966796875,432
53,1455485270.79142141342163085938,512
54,1455485270.84115958213806152344,584
55,1455485270.89081072807312011719,608
56,1455485270.9409618377685546875,584
57,1455485270.99160885810852050781,504
58,1455485271.04142904281616210938,424
59,1455485271.09270310401916503906,376
60,1455485271.14169669151306152344,384
61,1455485271.19162011146545410156,440
62,1455485271.24161434173583984375,528
63,1455485271.29138541221618652344,592
64,1455485271.34161210060119628906,608
65,1455485271.39123439788818359375,576
66,1455485271.44086289405822753906,496
67,1455485271.49268078804016113281,416
68,1455485271.54106068611145019531,376
69,1455485271.59079432487487792969,384
70,1455485271.64126682281494140625,448
71,1455485271.69115114212036132812,536
72,1455485271.74104237556457519531,600
73,1455485271.79135251045227050781,608
74,1455485271.84133410453796386719,568
75,1455485271.89138674736022949219,488
76,1455485271.94135069847106933594,408
77,1455485271.99119162559509277344,376
78,1455485272.04092836380004882812,392
79,1455485272.09159135818481445312,456
80,1455485272.14098453521728515625,544
81,1455485272.191013336181640625,600
82,1455485272.241497039794921875,608
83,1455485272.29200410842895507812,560
84,1455485272.34105587005615234375,480
85,1455485272.39122247695922851562,408
86,1455485272.44068312644958496094,376
87,1455485272.49195456504821777344,400
88,1455485272.54138350486755371094,472
89,1455485272.59145879745483398438,552
90,1455485272.64147043228149414062,608
91,1455485272.69088029861450195312,608
92,1455485272.74145817756652832031,552
93,1455485272.79135489463806152344,472
94,1455485272.84101533889770507812,400
95,1455485272.90030789375305175781,376
96,1455485272.94159603118896484375,400
97,1455485272.991313934326171875,480
98,1455485273.04111957550048828125,560
99,1455485273.09182453155517578125,608
100,1455485273.141574859619140625,600
101,1455485273.19133114814758300781,544
102,1455485273.2416057586669921875,456
103,1455485273.29137778282165527344,392
104,1455485273.34131717681884765625,376
105,1455485273.39076519012451171875,408
106,1455485273.44156718254089355469,488
107,1455485273.49179196357727050781,568
108,1455485273.54163599014282226562,608
109,1455485273.59169530868530273438,600
110,1455485273.64142775535583496094,536
111,1455485273.69151830673217773438,448
112,1455485273.74066662788391113281,392
113,1455485273.79118299484252929688,376
114,1455485273.8406658172607421875,416
115,1455485273.89164614677429199219,496
116,1455485273.94149374961853027344,576
117,1455485273.99169158935546875,608
118,1455485274.04147362709045410156,560
119,1455485274.09148240089416503906,608
120,1455485274.14160323143005371094,600
121,1455485274.19144940376281738281,544
122,1455485274.24112653732299804688,464
123,1455485274.29210686683654785156,392
124,1455485274.34166812896728515625,376
125,1455485274.39166116714477539062,408
126,1455485274.44109869003295898438,488
127,1455485274.49066281318664550781,568
128,1455485274.54099917411804199219,608
129,1455485274.59107708930969238281,600
130,1455485274.64149117469787597656,536
131,1455485274.69190096855163574219,448
132,1455485274.74167299270629882812,384
133,1455485274.79136729240417480469,376
134,1455485274.84098482131958007812,416
135,1455485274.89143443107604980469,496
136,1455485274.94168019294738769531,576
137,1455485274.99106431007385253906,608
138,1455485275.04095292091369628906,592
139,1455485275.09142541885375976562,528
140,1455485275.14076471328735351562,440
141,1455485275.1907939910888671875,384
142,1455485275.24105572700500488281,376
143,1455485275.29193258285522460938,424
144,1455485275.34075760841369628906,504
145,1455485275.39126944541931152344,576
146,1455485275.44137454032897949219,608
147,1455485275.49179959297180175781,584
148,1455485275.54135560989379882812,520
149,1455485275.59188342094421386719,432
150,1455485275.64129543304443359375,376
151,1455485275.69120001792907714844,376
152,1455485275.74121761322021484375,432
153,1455485275.7908916473388671875,512
154,1455485275.84128355979919433594,584
155,1455485275.89175057411193847656,608
156,1455485275.94138550758361816406,584
157,1455485275.99068355560302734375,504
158,1455485276.043701171875,424
159,1455485276.09135961532592773438,376
160,1455485276.1407489776611328125,384
161,1455485276.19189047813415527344,440
162,1455485276.24231100082397460938,528
163,1455485276.29129624366760253906,592
164,1455485276.34163928031921386719,608
165,1455485276.39166164398193359375,576
166,1455485276.44142913818359375,496
167,1455485276.49162530899047851562,416
168,1455485276.54063344001770019531,376
169,1455485276.59109997749328613281,384
170,1455485276.64153265953063964844,448
171,1455485276.69347977638244628906,536
172,1455485276.74097323417663574219,600
173,1455485276.79171776771545410156,608
174,1455485276.84423589706420898438,560
175,1455485276.8911457061767578125,488
176,1455485276.94064760208129882812,408
177,1455485276.99109101295471191406,376
178,1455485277.04076671600341796875,392
179,1455485277.09407472610473632812,464
180,1455485277.14141607284545898438,544
181,1455485277.19178867340087890625,600
182,1455485277.24115300178527832031,608
183,1455485277.29202342033386230469,560
184,1455485277.34118628501892089844,480
185,1455485277.39121842384338378906,408
186,1455485277.44171214103698730469,376
187,1455485277.49094462394714355469,400
188,1455485277.54177212715148925781,472
189,1455485277.59136247634887695312,552
190,1455485277.64084458351135253906,608
191,1455485277.69169974327087402344,608
192,1455485277.74086499214172363281,552
193,1455485277.79135012626647949219,472
194,1455485277.840702056884765625,400
195,1455485277.89088988304138183594,376
196,1455485277.94098758697509765625,400
197,1455485277.99152970314025878906,480
198,1455485278.04121732711791992188,560
199,1455485278.09067773818969726562,608
200,1455485278.14170336723327636719,600
201,1455485278.19125580787658691406,544
202,1455485278.24112939834594726562,464
203,1455485278.29173374176025390625,392
204,1455485278.34096217155456542969,376
205,1455485278.39095950126647949219,408
206,1455485278.44075036048889160156,488
207,1455485278.49156546592712402344,568
208,1455485278.54141998291015625,608
209,1455485278.59122443199157714844,600
210,1455485278.64072155952453613281,536
211,1455485278.6917057037353515625,448
212,1455485278.74070668220520019531,392
213,1455485278.79177641868591308594,376
214,1455485278.84258508682250976562,416
215,1455485278.89064383506774902344,496
216,1455485278.94177341461181640625,576
217,1455485278.99118065834045410156,608
218,1455485279.04152154922485351562,592
219,1455485279.0914897918701171875,528
220,1455485279.14068436622619628906,440
221,1455485279.19108080863952636719,384
222,1455485279.2415618896484375,376
223,1455485279.29171299934387207031,424
224,1455485279.34112477302551269531,504
225,1455485279.39158296585083007812,576
226,1455485279.44122767448425292969,608
227,1455485279.49193358421325683594,584
228,1455485279.54120755195617675781,520
229,1455485279.59159731864929199219,432
230,1455485279.6414947509765625,376
231,1455485279.69127345085144042969,376
232,1455485279.74084377288818359375,432
233,1455485279.79109787940979003906,512
234,1455485279.84156060218811035156,584
235,1455485279.89328837394714355469,608
236,1455485279.94150900840759277344,584
237,1455485279.99153852462768554688,504
238,1455485280.04160189628601074219,424
239,1455485280.09158110618591308594,376
240,1455485280.14097285270690917969,384
241,1455485280.19145298004150390625,440
242,1455485280.24164247512817382812,528
243,1455485280.29095721244812011719,592
244,1455485280.34190464019775390625,608
245,1455485280.39186120033264160156,576
246,1455485280.441204071044921875,496
247,1455485280.49133944511413574219,416
248,1455485280.54110431671142578125,376
249,1455485280.59155297279357910156,384
250,1455485280.64129018783569335938,448
251,1455485280.69252991676330566406,536
252,1455485280.74150180816650390625,600
253,1455485280.79165983200073242188,608
254,1455485280.84107446670532226562,568
255,1455485280.89206552505493164062,488
256,1455485280.94102692604064941406,408
257,1455485280.99178433418273925781,376
258,1455485281.04171848297119140625,392
259,1455485281.09118318557739257812,456
260,1455485281.14085292816162109375,544
261,1455485281.19089007377624511719,600
262,1455485281.24163961410522460938,608
263,1455485281.29208612442016601562,560
264,1455485281.34157443046569824219,480
265,1455485281.39133214950561523438,408
266,1455485281.44114208221435546875,376
267,1455485281.49183583259582519531,400
268,1455485281.54136729240417480469,472
269,1455485281.59119462966918945312,552
270,1455485281.64169955253601074219,608
271,1455485281.69073915481567382812,608
272,1455485281.74144911766052246094,552
273,1455485281.79063320159912109375,472
274,1455485281.84144759178161621094,400
275,1455485281.89244699478149414062,376
276,1455485281.94103169441223144531,400
277,1455485281.99302577972412109375,480
278,1455485282.041473388671875,560
279,1455485282.09172415733337402344,608
280,1455485282.14158225059509277344,600
281,1455485282.19114851951599121094,544
282,1455485282.24095439910888671875,464
283,1455485282.29162168502807617188,392
284,1455485282.34076809883117675781,376
285,1455485282.3907108306884765625,408
286,1455485282.44178414344787597656,488
287,1455485282.49180459976196289062,568
288,1455485282.54085302352905273438,608
289,1455485282.59103465080261230469,600
290,1455485282.64112830162048339844,536
291,1455485282.69210577011108398438,448
292,1455485282.74151873588562011719,384
293,1455485282.79153490066528320312,376
294,1455485282.84105706214904785156,416
295,1455485282.89080476760864257812,496
296,1455485282.94123768806457519531,576
297,1455485282.9909420013427734375,608
298,1455485283.04090142250061035156,560
299,1455485283.09179806709289550781,608
300,1455485283.14182972908020019531,600
301,1455485283.19137883186340332031,544
302,1455485283.24171590805053710938,456
303,1455485283.290859222412109375,392
304,1455485283.34064269065856933594,376
305,1455485283.39133095741271972656,408
306,1455485283.44074749946594238281,488
307,1455485283.49063158035278320312,568
308,1455485283.54138302803039550781,608
309,1455485283.59298563003540039062,592
310,1455485283.64061594009399414062,536
311,1455485283.69145250320434570312,448
312,1455485283.74176239967346191406,384
313,1455485283.79105639457702636719,376
314,1455485283.8417186737060546875,416
315,1455485283.89071965217590332031,496
316,1455485283.94129014015197753906,576
317,1455485283.991092681884765625,608
318,1455485284.04084920883178710938,592
319,1455485284.09183049201965332031,528
320,1455485284.14071130752563476562,440
321,1455485284.19152855873107910156,384
322,1455485284.24227929115295410156,376
323,1455485284.29235196113586425781,424
324,1455485284.34125041961669921875,504
325,1455485284.39064073562622070312,576
326,1455485284.44105029106140136719,608
327,1455485284.49154877662658691406,584
328,1455485284.54085302352905273438,520
329,1455485284.59190034866333007812,432
330,1455485284.64098477363586425781,376
331,1455485284.69170379638671875,376
332,1455485284.74070024490356445312,432
333,1455485284.79070210456848144531,512
334,1455485284.8421497344970703125,584
335,1455485284.89150404930114746094,608
336,1455485284.94089484214782714844,584
337,1455485284.990581512451171875,512
338,1455485285.04063940048217773438,424
339,1455485285.09218120574951171875,376
340,1455485285.14165091514587402344,384
341,1455485285.19144678115844726562,440
342,1455485285.24124360084533691406,520
343,1455485285.2906589508056640625,592
344,1455485285.34149622917175292969,608
345,1455485285.39080524444580078125,576
346,1455485285.44115734100341796875,496
347,1455485285.49212551116943359375,416
348,1455485285.54093289375305175781,376
349,1455485285.5913410186767578125,384
350,1455485285.64059925079345703125,448
351,1455485285.69123888015747070312,536
352,1455485285.74140667915344238281,600
353,1455485285.79116725921630859375,608
354,1455485285.84306049346923828125,568
355,1455485285.89085483551025390625,488
356,1455485285.94191694259643554688,408
357,1455485285.99099254608154296875,376
358,1455485286.04065728187561035156,392
359,1455485286.09165048599243164062,456
360,1455485286.14122700691223144531,544
361,1455485286.1908779144287109375,600
362,1455485286.24087500572204589844,608
363,1455485286.29136514663696289062,560
364,1455485286.34116911888122558594,480
365,1455485286.39085340499877929688,408
366,1455485286.44118094444274902344,376
367,1455485286.4915027618408203125,400
368,1455485286.54163432121276855469,472
369,1455485286.59099626541137695312,552
370,1455485286.641719818115234375,608
371,1455485286.6918926239013671875,608
372,1455485286.74116802215576171875,552
373,1455485286.79133081436157226562,472
374,1455485286.84099936485290527344,400
375,1455485286.89182376861572265625,376
376,1455485286.94087553024291992188,400
377,1455485286.99180555343627929688,480
378,1455485287.04143500328063964844,560
379,1455485287.09248089790344238281,608
380,1455485287.14058232307434082031,600
381,1455485287.19137144088745117188,544
382,1455485287.24150729179382324219,456
383,1455485287.29129838943481445312,392
384,1455485287.34066677093505859375,376
385,1455485287.39126682281494140625,408
386,1455485287.44066596031188964844,488
387,1455485287.49174618721008300781,568
388,1455485287.54060721397399902344,608
389,1455485287.59142756462097167969,600
390,1455485287.64098072052001953125,536
391,1455485287.69237852096557617188,448
392,1455485287.74082088470458984375,392
393,1455485287.791316986083984375,376
394,1455485287.84074807167053222656,416
395,1455485287.89202547073364257812,496
396,1455485287.94060826301574707031,576
397,1455485287.9915485382080078125,608
398,1455485288.04138302803039550781,592
399,1455485288.091030120849609375,528
400,1455485288.1414737701416015625,440
401,1455485288.19103384017944335938,384
402,1455485288.24148416519165039062,376
403,1455485288.29081964492797851562,424
404,1455485288.34105443954467773438,504
405,1455485288.39174151420593261719,584
406,1455485288.44212555885314941406,608
407,1455485288.49105715751647949219,584
408,1455485288.54145860671997070312,512
409,1455485288.59070801734924316406,432
410,1455485288.64156293869018554688,376
411,1455485288.69144415855407714844,376
412,1455485288.74126267433166503906,432
413,1455485288.79192566871643066406,512
414,1455485288.84139156341552734375,584
415,1455485288.8913707733154296875,608
416,1455485288.9408092498779296875,584
417,1455485288.99089097976684570312,504
418,1455485289.04140162467956542969,424
419,1455485289.0916748046875,376
420,1455485289.14110612869262695312,384
421,1455485289.1912593841552734375,440
422,1455485289.24095177650451660156,520
423,1455485289.29093289375305175781,592
424,1455485289.34169816970825195312,608
425,1455485289.39164185523986816406,576
426,1455485289.44132304191589355469,496
427,1455485289.49150347709655761719,416
428,1455485289.54138207435607910156,376
429,1455485289.59124922752380371094,384
430,1455485289.640933990478515625,448
431,1455485289.6914730072021484375,536
432,1455485289.74070262908935546875,592
433,1455485289.79136109352111816406,608
434,1455485289.84109139442443847656,568
435,1455485289.89189076423645019531,488
436,1455485289.94076323509216308594,408
437,1455485289.9916324615478515625,376
438,1455485290.04123425483703613281,392
439,1455485290.09167551994323730469,456
440,1455485290.14141368865966796875,544
441,1455485290.19067502021789550781,600
442,1455485290.24153947830200195312,608
443,1455485290.29270029067993164062,560
444,1455485290.34134840965270996094,480
445,1455485290.39078569412231445312,408
446,1455485290.44115209579467773438,376
447,1455485290.49061918258666992188,400
448,1455485290.54093599319458007812,464
449,1455485290.59173107147216796875,552
450,1455485290.64111542701721191406,608
451,1455485290.69097423553466796875,608
452,1455485290.74140501022338867188,552
453,1455485290.79119944572448730469,472
454,1455485290.84194493293762207031,400
455,1455485290.89191389083862304688,376
456,1455485290.94101548194885253906,400
457,1455485290.99095749855041503906,480
458,1455485291.04153561592102050781,560
459,1455485291.09253191947937011719,608
460,1455485291.14098000526428222656,600
461,1455485291.19093060493469238281,544
462,1455485291.24126410484313964844,464
463,1455485291.29105019569396972656,392
464,1455485291.34164857864379882812,376
465,1455485291.39139890670776367188,408
466,1455485291.44158601760864257812,488
467,1455485291.49188232421875,568
468,1455485291.54061937332153320312,608
469,1455485291.59155821800231933594,600
470,1455485291.64097499847412109375,536
471,1455485291.69152045249938964844,448
472,1455485291.74069094657897949219,392
473,1455485291.79168033599853515625,376
474,1455485291.8409976959228515625,416
475,1455485291.89107966423034667969,496
476,1455485291.94115591049194335938,576
477,1455485291.99150300025939941406,608
478,1455485292.04139828681945800781,560
479,1455485292.09143948554992675781,608
480,1455485292.14170384407043457031,600
481,1455485292.19146299362182617188,544
482,1455485292.24119877815246582031,464
483,1455485292.29172205924987792969,392
484,1455485292.34103035926818847656,376
485,1455485292.39170002937316894531,408
486,1455485292.44123625755310058594,488
487,1455485292.49109482765197753906,568
488,1455485292.54134964942932128906,608
489,1455485292.59097695350646972656,600
490,1455485292.64138841629028320312,536
491,1455485292.69440293312072753906,448
492,1455485292.74094915390014648438,384
493,1455485292.79115128517150878906,376
494,1455485292.84138560295104980469,416
495,1455485292.89130377769470214844,496
496,1455485292.94101190567016601562,576
497,1455485292.99160718917846679688,608
498,1455485293.04162883758544921875,592
499,1455485293.09102034568786621094,528
500,1455485293.14152073860168457031,440
501,1455485293.1913852691650390625,384
502,1455485293.24151825904846191406,376
503,1455485293.29154419898986816406,424
504,1455485293.34155368804931640625,504
