id, time (s), size (bits)
0,1455485268.15141224861145019531,560
1,1455485268.21189975738525390625,608
2,1455485268.27180600166320800781,584
3,1455485268.33130741119384765625,496
4,1455485268.39247035980224609375,400
5,1455485268.45151805877685546875,376
6,1455485268.5120372772216796875,424
7,1455485268.57188081741333007812,520
8,1455485268.63193392753601074219,600
9,1455485268.69182753562927246094,608
10,1455485268.75116896629333496094,536
11,1455485268.81274962425231933594,432
12,1455485268.87188792228698730469,376
13,1455485268.93217182159423828125,392
14,1455485268.99257159233093261719,480
15,1455485269.05141472816467285156,568
16,1455485269.11121797561645507812,608
17,1455485269.1721096038818359375,568
18,1455485269.23191690444946289062,472
19,1455485269.29207277297973632812,392
20,1455485269.3516407012939453125,376
21,1455485269.41151571273803710938,440
22,1455485269.47180318832397460938,536
23,1455485269.53209543228149414062,608
24,1455485269.59254717826843261719,592
25,1455485269.65159440040588378906,520
26,1455485269.71186995506286621094,424
27,1455485269.77174878120422363281,376
28,1455485269.83095407485961914062,408
29,1455485269.89268422126770019531,496
30,1455485269.9519786834716796875,584
31,1455485270.01183414459228515625,608
32,1455485270.07195115089416503906,552
33,1455485270.13180255889892578125,456
34,1455485270.19255661964416503906,384
35,1455485270.25213193893432617188,384
36,1455485270.31175160408020019531,456
37,1455485270.37138414382934570312,552
38,1455485270.43092870712280273438,608
39,1455485270.49203014373779296875,584
40,1455485270.55161786079406738281,496
41,1455485270.61165499687194824219,408
42,1455485270.67133450508117675781,376
43,1455485270.73319149017333984375,424
44,1455485270.79221677780151367188,520
45,1455485270.85204339027404785156,600
46,1455485270.911174774169921875,608
47,1455485270.97190093994140625,536
48,1455485271.03175449371337890625,440
49,1455485271.093639373779296875,376
50,1455485271.15157365798950195312,392
51,1455485271.21174025535583496094,472
52,1455485271.27142238616943359375,568
53,1455485271.33170843124389648438,608
54,1455485271.39204287528991699219,576
55,1455485271.45209598541259765625,480
56,1455485271.51156139373779296875,392
57,1455485271.57100009918212890625,376
58,1455485271.63228106498718261719,432
59,1455485271.693470001220703125,536
60,1455485271.75169110298156738281,600
61,1455485271.81151938438415527344,600
62,1455485271.87127995491027832031,520
63,1455485271.93147253990173339844,424
64,1455485271.99192738533020019531,376
65,1455485272.05273032188415527344,400
66,1455485272.11127257347106933594,496
67,1455485272.17114377021789550781,584
68,1455485272.23189187049865722656,608
69,1455485272.29294157028198242188,560
70,1455485272.35180521011352539062,464
71,1455485272.41134190559387207031,384
72,1455485272.47179126739501953125,384
73,1455485272.53230261802673339844,456
74,1455485272.59217047691345214844,552
75,1455485272.65160727500915527344,608
76,1455485272.71203827857971191406,592
77,1455485272.77199816703796386719,504
78,1455485272.83101582527160644531,408
79,1455485272.9011077880859375,376
80,1455485272.95163702964782714844,416
81,1455485273.0113983154296875,512
82,1455485273.07127285003662109375,592
83,1455485273.13215780258178710938,608
84,1455485273.1922473907470703125,544
85,1455485273.25153231620788574219,440
86,1455485273.31312537193298339844,376
87,1455485273.37227535247802734375,392
88,1455485273.43161988258361816406,472
89,1455485273.49252390861511230469,568
90,1455485273.55155229568481445312,608
91,1455485273.61150717735290527344,576
92,1455485273.6714496612548828125,480
93,1455485273.73380517959594726562,392
94,1455485273.79197573661804199219,376
95,1455485273.85156893730163574219,432
96,1455485273.91132307052612304688,528
97,1455485273.97208952903747558594,600
98,1455485274.0313568115234375,544
99,1455485274.09223127365112304688,608
100,1455485274.15179848670959472656,592
101,1455485274.21226859092712402344,512
102,1455485274.27179288864135742188,416
103,1455485274.33190894126892089844,376
104,1455485274.39255619049072265625,408
105,1455485274.45114493370056152344,504
106,1455485274.51130223274230957031,592
107,1455485274.57229018211364746094,608
108,1455485274.63160920143127441406,552
109,1455485274.69272518157958984375,448
110,1455485274.75196170806884765625,376
111,1455485274.81225323677062988281,384
112,1455485274.87150263786315917969,464
113,1455485274.93274617195129394531,560
114,1455485274.9918041229248046875,608
115,1455485275.05194973945617675781,584
116,1455485275.11223459243774414062,488
117,1455485275.17190670967102050781,400
118,1455485275.23167490959167480469,376
119,1455485275.29266571998596191406,424
120,1455485275.35136866569519042969,520
121,1455485275.41153764724731445312,600
122,1455485275.47203302383422851562,600
123,1455485275.53148722648620605469,536
124,1455485275.59265971183776855469,432
125,1455485275.65148639678955078125,376
126,1455485275.711643218994140625,392
127,1455485275.77212786674499511719,480
128,1455485275.83181428909301757812,576
129,1455485275.89266514778137207031,608
130,1455485275.95198583602905273438,568
131,1455485276.01193976402282714844,472
132,1455485276.07154369354248046875,392
133,1455485276.13205099105834960938,376
134,1455485276.19268631935119628906,440
135,1455485276.25140213966369628906,544
136,1455485276.31185674667358398438,608
137,1455485276.37187600135803222656,592
138,1455485276.43184351921081542969,512
139,1455485276.49226713180541992188,416
140,1455485276.55172681808471679688,376
141,1455485276.61289644241333007812,408
142,1455485276.67192435264587402344,504
143,1455485276.73230648040771484375,584
144,1455485276.79246640205383300781,608
145,1455485276.85131192207336425781,552
146,1455485276.91114258766174316406,456
147,1455485276.97170734405517578125,384
148,1455485277.032012939453125,384
149,1455485277.09491372108459472656,464
150,1455485277.15100574493408203125,560
151,1455485277.21166586875915527344,608
152,1455485277.27188539505004882812,584
153,1455485277.33152508735656738281,496
154,1455485277.39218783378601074219,400
155,1455485277.45141100883483886719,376
156,1455485277.51167917251586914062,424
157,1455485277.57234168052673339844,520
158,1455485277.63182568550109863281,600
159,1455485277.69342684745788574219,600
160,1455485277.75166344642639160156,536
161,1455485277.81215429306030273438,440
162,1455485277.87120342254638671875,376
163,1455485277.93238353729248046875,392
164,1455485277.99240374565124511719,480
165,1455485278.051776885986328125,576
166,1455485278.11167478561401367188,608
167,1455485278.17171168327331542969,568
168,1455485278.23098254203796386719,480
169,1455485278.29246664047241210938,392
170,1455485278.35152935981750488281,376
171,1455485278.411571502685546875,440
172,1455485278.4717845916748046875,536
173,1455485278.53153300285339355469,608
174,1455485278.59212183952331542969,600
175,1455485278.65155839920043945312,520
176,1455485278.71201062202453613281,424
177,1455485278.77112340927124023438,376
178,1455485278.83135008811950683594,408
179,1455485278.89346385002136230469,496
180,1455485278.9515209197998046875,584
181,1455485279.01122760772705078125,608
182,1455485279.0712566375732421875,560
183,1455485279.1318645477294921875,456
184,1455485279.19180846214294433594,384
185,1455485279.25230145454406738281,384
186,1455485279.31287121772766113281,456
187,1455485279.37198281288146972656,552
188,1455485279.43160176277160644531,608
189,1455485279.49287652969360351562,584
190,1455485279.55180525779724121094,496
191,1455485279.61150979995727539062,408
192,1455485279.67125010490417480469,376
193,1455485279.73093914985656738281,416
194,1455485279.79204964637756347656,512
195,1455485279.85174465179443359375,592
196,1455485279.9113311767578125,608
197,1455485279.97134423255920410156,536
198,1455485280.03257870674133300781,440
199,1455485280.09250092506408691406,376
200,1455485280.15177583694458007812,392
201,1455485280.21179151535034179688,472
202,1455485280.27168726921081542969,568
203,1455485280.33198189735412597656,608
204,1455485280.39258575439453125,576
205,1455485280.45229196548461914062,480
206,1455485280.51197314262390136719,392
207,1455485280.57185506820678710938,376
208,1455485280.63156580924987792969,432
209,1455485280.69339013099670410156,536
210,1455485280.75128579139709472656,600
211,1455485280.81177520751953125,600
212,1455485280.87194943428039550781,520
213,1455485280.93203830718994140625,424
214,1455485280.99250268936157226562,376
215,1455485281.05172634124755859375,400
216,1455485281.11122775077819824219,496
217,1455485281.17156338691711425781,584
218,1455485281.2318210601806640625,608
219,1455485281.29279875755310058594,560
220,1455485281.35160231590270996094,464
221,1455485281.41129326820373535156,384
222,1455485281.47151422500610351562,384
223,1455485281.53206515312194824219,456
224,1455485281.59205579757690429688,552
225,1455485281.65125107765197753906,608
226,1455485281.71243572235107421875,584
227,1455485281.77121853828430175781,504
228,1455485281.83160948753356933594,408
229,1455485281.89323759078979492188,376
230,1455485281.95204591751098632812,416
231,1455485282.01195549964904785156,512
232,1455485282.071483612060546875,592
233,1455485282.13350915908813476562,608
234,1455485282.1918811798095703125,544
235,1455485282.25158405303955078125,440
236,1455485282.31122636795043945312,376
237,1455485282.37227463722229003906,392
238,1455485282.43186688423156738281,472
239,1455485282.49251818656921386719,568
240,1455485282.55168199539184570312,608
241,1455485282.61209535598754882812,576
242,1455485282.67176890373229980469,480
243,1455485282.73193693161010742188,400
244,1455485282.79243707656860351562,376
245,1455485282.85124516487121582031,432
246,1455485282.91142320632934570312,528
247,1455485282.97133517265319824219,600
248,1455485283.03189492225646972656,544
249,1455485283.09260439872741699219,608
250,1455485283.15142965316772460938,592
251,1455485283.21132063865661621094,512
252,1455485283.27149128913879394531,416
253,1455485283.33195590972900390625,376
254,1455485283.39202284812927246094,408
255,1455485283.45175075531005859375,504
256,1455485283.51193785667419433594,592
257,1455485283.57147860527038574219,608
258,1455485283.63215494155883789062,552
259,1455485283.69225144386291503906,448
260,1455485283.75138187408447265625,384
261,1455485283.81177449226379394531,384
262,1455485283.87103033065795898438,464
263,1455485283.93143677711486816406,560
264,1455485283.99181294441223144531,608
265,1455485284.05282688140869140625,584
266,1455485284.11144161224365234375,488
267,1455485284.17159295082092285156,400
268,1455485284.23164248466491699219,376
269,1455485284.29321837425231933594,424
270,1455485284.35179996490478515625,520
271,1455485284.41227889060974121094,600
272,1455485284.47179532051086425781,600
273,1455485284.53201651573181152344,528
274,1455485284.59269833564758300781,432
275,1455485284.65172076225280761719,376
276,1455485284.7113437652587890625,392
277,1455485284.77288055419921875,480
278,1455485284.83202981948852539062,576
279,1455485284.89215493202209472656,608
280,1455485284.95169830322265625,568
281,1455485285.01288843154907226562,472
282,1455485285.07139182090759277344,392
283,1455485285.13201379776000976562,376
284,1455485285.19229030609130859375,440
285,1455485285.25203585624694824219,544
286,1455485285.31195497512817382812,608
287,1455485285.37126421928405761719,592
288,1455485285.43126344680786132812,512
289,1455485285.49294495582580566406,416
290,1455485285.55149149894714355469,376
291,1455485285.61215472221374511719,408
292,1455485285.67136502265930175781,496
293,1455485285.73193430900573730469,584
294,1455485285.79209423065185546875,608
295,1455485285.85203385353088378906,552
296,1455485285.91143202781677246094,456
297,1455485285.97209835052490234375,384
298,1455485286.03093552589416503906,384
299,1455485286.09240078926086425781,464
300,1455485286.15141248703002929688,560
301,1455485286.21197867393493652344,608
302,1455485286.27161121368408203125,584
303,1455485286.3311786651611328125,496
304,1455485286.39187598228454589844,400
305,1455485286.45252776145935058594,376
306,1455485286.51166772842407226562,424
307,1455485286.57144594192504882812,520
308,1455485286.63180613517761230469,600
309,1455485286.69269323348999023438,600
310,1455485286.75177216529846191406,536
311,1455485286.81103563308715820312,440
312,1455485286.87193703651428222656,376
313,1455485286.9321613311767578125,392
314,1455485286.99263930320739746094,480
315,1455485287.05164742469787597656,568
316,1455485287.11131405830383300781,608
317,1455485287.17147803306579589844,568
318,1455485287.23158025741577148438,480
319,1455485287.29208850860595703125,392
320,1455485287.35175943374633789062,376
321,1455485287.41211199760437011719,440
322,1455485287.47132086753845214844,536
323,1455485287.5314502716064453125,608
324,1455485287.59214878082275390625,600
325,1455485287.6524524688720703125,520
326,1455485287.71104884147644042969,424
327,1455485287.77167844772338867188,376
328,1455485287.83212614059448242188,408
329,1455485287.89289021492004394531,496
330,1455485287.95118403434753417969,584
331,1455485288.01356577873229980469,608
332,1455485288.07114744186401367188,560
333,1455485288.13134479522705078125,456
334,1455485288.19181680679321289062,384
335,1455485288.25158381462097167969,384
336,1455485288.31156754493713378906,456
337,1455485288.37171053886413574219,552
338,1455485288.4311313629150390625,608
339,1455485288.4919071197509765625,584
340,1455485288.55099511146545410156,496
341,1455485288.6117572784423828125,408
342,1455485288.67135787010192871094,376
343,1455485288.73139691352844238281,416
344,1455485288.79266643524169921875,520
345,1455485288.85244584083557128906,600
346,1455485288.91204404830932617188,608
347,1455485288.97186517715454101562,536
348,1455485289.03185868263244628906,440
349,1455485289.09477114677429199219,376
350,1455485289.15185952186584472656,392
351,1455485289.21138858795166015625,472
352,1455485289.27199697494506835938,568
353,1455485289.33217406272888183594,608
354,1455485289.39237165451049804688,576
355,1455485289.4512805938720703125,480
356,1455485289.51178884506225585938,392
357,1455485289.57170271873474121094,376
358,1455485289.63103342056274414062,432
359,1455485289.69227313995361328125,536
360,1455485289.75174832344055175781,600
361,1455485289.81127762794494628906,600
362,1455485289.87139272689819335938,520
363,1455485289.93131375312805175781,424
364,1455485289.99251294136047363281,376
365,1455485290.05096149444580078125,400
366,1455485290.11211156845092773438,496
367,1455485290.17117190361022949219,584
368,1455485290.23171281814575195312,608
369,1455485290.29341793060302734375,560
370,1455485290.35125756263732910156,464
371,1455485290.411716461181640625,384
372,1455485290.47103166580200195312,384
373,1455485290.53292346000671386719,456
374,1455485290.59252071380615234375,552
375,1455485290.65190768241882324219,608
376,1455485290.71156668663024902344,592
377,1455485290.77151322364807128906,504
378,1455485290.83098077774047851562,408
379,1455485290.89263248443603515625,376
380,1455485290.95203304290771484375,416
381,1455485291.01271343231201171875,512
382,1455485291.07197737693786621094,592
383,1455485291.1312580108642578125,608
384,1455485291.19169545173645019531,544
385,1455485291.25147485733032226562,440
386,1455485291.31194424629211425781,376
387,1455485291.371807098388671875,392
388,1455485291.431133270263671875,472
389,1455485291.49261450767517089844,568
390,1455485291.55175495147705078125,608
391,1455485291.61143922805786132812,576
392,1455485291.67187809944152832031,480
393,1455485291.73203587532043457031,400
394,1455485291.79242157936096191406,376
395,1455485291.85187101364135742188,432
396,1455485291.91101813316345214844,528
397,1455485291.97178626060485839844,600
398,1455485292.03149461746215820312,544
399,1455485292.09215664863586425781,608
400,1455485292.15176248550415039062,592
401,1455485292.21317148208618164062,504
402,1455485292.27158594131469726562,416
403,1455485292.33146619796752929688,376
404,1455485292.3925304412841796875,408
405,1455485292.45113492012023925781,504
406,1455485292.51179194450378417969,592
407,1455485292.57203054428100585938,608
408,1455485292.63151884078979492188,552
409,1455485292.6951465606689453125,448
410,1455485292.75148296356201171875,384
411,1455485292.81163740158081054688,384
412,1455485292.87231755256652832031,464
413,1455485292.93103480339050292969,560
414,1455485292.9924678802490234375,608
415,1455485293.05157899856567382812,584
416,1455485293.11233258247375488281,488
417,1455485293.17123270034790039062,400
418,1455485293.23175263404846191406,376
419,1455485293.29226827621459960938,424
420,1455485293.35103678703308105469,520
421,1455485293.41192030906677246094,600
422,1455485293.47091579437255859375,600
423,1455485293.53142404556274414062,536
424,1455485293.59229874610900878906,432
425,1455485293.65140032768249511719,376
426,1455485293.71227335929870605469,400
427,1455485293.77305340766906738281,480
428,1455485293.83245325088500976562,576
429,1455485293.893741607666015625,608
430,1455485293.95191168785095214844,568
431,1455485294.01129865646362304688,472
432,1455485294.07189631462097167969,392
433,1455485294.13136768341064453125,376
434,1455485294.19156670570373535156,440
435,1455485294.25201249122619628906,544
436,1455485294.311824798583984375,608
437,1455485294.37311530113220214844,592
438,1455485294.43104958534240722656,512
439,1455485294.49241757392883300781,416
440,1455485294.55193400382995605469,376
441,1455485294.61267638206481933594,408
442,1455485294.67165422439575195312,504
443,1455485294.73157048225402832031,584
444,1455485294.79152321815490722656,608
445,1455485294.85258769989013671875,552
446,1455485294.91192984580993652344,456
447,1455485294.97165775299072265625,384
448,1455485295.03169345855712890625,384
449,1455485295.09344530105590820312,464
450,1455485295.15146422386169433594,560
451,1455485295.21138715744018554688,608
452,1455485295.27112722396850585938,584
453,1455485295.33132505416870117188,496
454,1455485295.39192271232604980469,400
455,1455485295.45159459114074707031,376
456,1455485295.51142525672912597656,424
457,1455485295.57106065750122070312,520
458,1455485295.63093829154968261719,600
459,1455485295.69217634201049804688,608
460,1455485295.75135755538940429688,536
461,1455485295.81211352348327636719,440
462,1455485295.87143921852111816406,376
463,1455485295.93144989013671875,392
464,1455485295.99216318130493164062,480
465,1455485296.05271172523498535156,576
466,1455485296.11145520210266113281,608
467,1455485296.17187929153442382812,568
468,1455485296.23141717910766601562,480
469,1455485296.29329705238342285156,392
470,1455485296.35171556472778320312,376
471,1455485296.41246843338012695312,440
472,1455485296.47199940681457519531,536
473,1455485296.53187870979309082031,608
474,1455485296.5928974151611328125,592
475,1455485296.65157270431518554688,520
476,1455485296.71132659912109375,424
477,1455485296.77174925804138183594,376
478,1455485296.83113193511962890625,408
479,1455485296.892414093017578125,496
480,1455485296.9520282745361328125,584
481,1455485297.011356353759765625,608
482,1455485297.07129263877868652344,560
483,1455485297.13175439834594726562,456
484,1455485297.19212818145751953125,384
485,1455485297.25169086456298828125,384
486,1455485297.31141328811645507812,456
487,1455485297.37212109565734863281,552
488,1455485297.43135952949523925781,608
489,1455485297.49278998374938964844,584
490,1455485297.5511455535888671875,496
491,1455485297.61160230636596679688,408
492,1455485297.67169356346130371094,376
493,1455485297.73245191574096679688,424
494,1455485297.79222512245178222656,520
495,1455485297.85174536705017089844,592
496,1455485297.91198015213012695312,608
497,1455485297.97117400169372558594,536
498,1455485298.03173208236694335938,440
499,1455485298.09182596206665039062,376
500,1455485298.15150284767150878906,392
501,1455485298.21195888519287109375,472
502,1455485298.27090549468994140625,568
503,1455485298.33158755302429199219,608
