id, time (s), size (bits)
0,1455485267.45350956916809082031,480
1,1455485267.50353002548217773438,400
2,1455485267.55352330207824707031,376
3,1455485267.60327649116516113281,400
4,1455485267.65372705459594726562,472
5,1455485267.70437884330749511719,552
6,1455485267.75332593917846679688,608
7,1455485267.80387330055236816406,600
8,1455485267.85339808464050292969,552
9,1455485267.90308904647827148438,472
10,1455485267.95388555526733398438,400
11,1455485268.00383138656616210938,376
12,1455485268.05335259437561035156,408
13,1455485268.1038837432861328125,480
14,1455485268.15332674980163574219,560
15,1455485268.20362186431884765625,608
16,1455485268.25353980064392089844,600
17,1455485268.30361962318420410156,544
18,1455485268.3540515899658203125,456
19,1455485268.40373706817626953125,392
20,1455485268.45364260673522949219,376
21,1455485268.50340247154235839844,408
22,1455485268.55302906036376953125,488
23,1455485268.60363340377807617188,568
24,1455485268.65395426750183105469,608
25,1455485268.70338582992553710938,600
26,1455485268.75375962257385253906,536
27,1455485268.8035640716552734375,448
28,1455485268.85332155227661132812,384
29,1455485268.90337061882019042969,376
30,1455485268.95304083824157714844,416
31,1455485269.00427126884460449219,496
32,1455485269.05508255958557128906,576
33,1455485269.10510230064392089844,608
34,1455485269.15407991409301757812,592
35,1455485269.20577907562255859375,520
36,1455485269.25368857383728027344,440
37,1455485269.30459475517272949219,384
38,1455485269.35325646400451660156,376
39,1455485269.40360760688781738281,424
40,1455485269.45336008071899414062,504
41,1455485269.50418615341186523438,584
42,1455485269.55365824699401855469,608
43,1455485269.60337710380554199219,584
44,1455485269.6538829803466796875,512
45,1455485269.70332360267639160156,432
46,1455485269.75381708145141601562,376
47,1455485269.80366587638854980469,376
48,1455485269.85430622100830078125,432
49,1455485269.90311837196350097656,512
50,1455485269.95363545417785644531,584
51,1455485270.00416970252990722656,608
52,1455485270.05310201644897460938,576
53,1455485270.10485768318176269531,504
54,1455485270.15403699874877929688,424
55,1455485270.20393490791320800781,376
56,1455485270.25517225265502929688,384
57,1455485270.30395746231079101562,440
58,1455485270.35382747650146484375,528
59,1455485270.40348458290100097656,592
60,1455485270.45343422889709472656,608
61,1455485270.50511074066162109375,568
62,1455485270.55332970619201660156,496
63,1455485270.60406279563903808594,416
64,1455485270.65383481979370117188,376
65,1455485270.70391869544982910156,392
66,1455485270.75384068489074707031,456
67,1455485270.80324673652648925781,536
68,1455485270.85397577285766601562,600
69,1455485270.90391707420349121094,608
70,1455485270.9532108306884765625,568
71,1455485271.00448322296142578125,488
72,1455485271.05527949333190917969,408
73,1455485271.10332083702087402344,376
74,1455485271.15358996391296386719,392
75,1455485271.20360708236694335938,464
76,1455485271.25341629981994628906,544
77,1455485271.3055362701416015625,600
78,1455485271.35357165336608886719,608
79,1455485271.40339446067810058594,560
80,1455485271.45434165000915527344,472
81,1455485271.50354075431823730469,400
82,1455485271.55344820022583007812,376
83,1455485271.60349178314208984375,400
84,1455485271.65358376502990722656,472
85,1455485271.7058734893798828125,552
86,1455485271.754047393798828125,608
87,1455485271.80361151695251464844,608
88,1455485271.85479569435119628906,544
89,1455485271.90416932106018066406,464
90,1455485271.95529246330261230469,392
91,1455485272.00338220596313476562,376
92,1455485272.0534038543701171875,408
93,1455485272.10397219657897949219,480
94,1455485272.15407967567443847656,560
95,1455485272.20392680168151855469,608
96,1455485272.25361132621765136719,600
97,1455485272.30393671989440917969,544
98,1455485272.35348343849182128906,456
99,1455485272.40324616432189941406,392
100,1455485272.45343494415283203125,376
101,1455485272.50330805778503417969,408
102,1455485272.55350089073181152344,488
103,1455485272.60353040695190429688,568
104,1455485272.6537990570068359375,608
105,1455485272.70352125167846679688,600
106,1455485272.75326466560363769531,536
107,1455485272.80406212806701660156,448
108,1455485272.85372710227966308594,384
109,1455485272.90482664108276367188,376
110,1455485272.95375323295593261719,416
111,1455485273.00404095649719238281,496
112,1455485273.05481767654418945312,576
113,1455485273.10414052009582519531,608
114,1455485273.15369296073913574219,592
115,1455485273.20354032516479492188,520
116,1455485273.25378298759460449219,440
117,1455485273.30347108840942382812,384
118,1455485273.35362601280212402344,376
119,1455485273.40368819236755371094,424
120,1455485273.45458984375,512
121,1455485273.50334382057189941406,584
122,1455485273.55376124382019042969,608
123,1455485273.60384654998779296875,584
124,1455485273.65358090400695800781,512
125,1455485273.70494127273559570312,432
126,1455485273.75395345687866210938,376
127,1455485273.80337572097778320312,376
128,1455485273.85480213165283203125,440
129,1455485273.90362691879272460938,520
130,1455485273.95354390144348144531,584
131,1455485274.00338077545166015625,496
132,1455485274.05350971221923828125,576
133,1455485274.10309386253356933594,608
134,1455485274.15331816673278808594,592
135,1455485274.20307278633117675781,528
136,1455485274.25534367561340332031,440
137,1455485274.30416154861450195312,384
138,1455485274.35402083396911621094,376
139,1455485274.40422177314758300781,424
140,1455485274.45309996604919433594,504
141,1455485274.5052394866943359375,584
142,1455485274.55359673500061035156,608
143,1455485274.60374951362609863281,584
144,1455485274.65447258949279785156,512
145,1455485274.70355749130249023438,432
146,1455485274.75468134880065917969,376
147,1455485274.80333757400512695312,376
148,1455485274.85324263572692871094,432
149,1455485274.90393948554992675781,520
150,1455485274.95335149765014648438,584
151,1455485275.00419878959655761719,608
152,1455485275.05473566055297851562,576
153,1455485275.10371303558349609375,504
154,1455485275.15298604965209960938,424
155,1455485275.20411443710327148438,376
156,1455485275.25422716140747070312,384
157,1455485275.30394053459167480469,440
158,1455485275.35343861579895019531,528
159,1455485275.40382409095764160156,592
160,1455485275.45434021949768066406,608
161,1455485275.50426650047302246094,568
162,1455485275.55404162406921386719,496
163,1455485275.60352325439453125,416
164,1455485275.6533203125,376
165,1455485275.70356607437133789062,384
166,1455485275.75335526466369628906,448
167,1455485275.80564427375793457031,536
168,1455485275.85504555702209472656,600
169,1455485275.90531611442565917969,608
170,1455485275.95348119735717773438,568
171,1455485276.00331854820251464844,488
172,1455485276.05362629890441894531,408
173,1455485276.10565257072448730469,376
174,1455485276.15355610847473144531,392
175,1455485276.20416665077209472656,464
176,1455485276.25477862358093261719,544
177,1455485276.30351495742797851562,600
178,1455485276.35374999046325683594,608
179,1455485276.40347933769226074219,560
180,1455485276.45374441146850585938,480
181,1455485276.50603580474853515625,400
182,1455485276.55393290519714355469,376
183,1455485276.60380101203918457031,400
184,1455485276.65445828437805175781,472
185,1455485276.70321488380432128906,552
186,1455485276.75397253036499023438,608
187,1455485276.80370187759399414062,608
188,1455485276.85375690460205078125,552
189,1455485276.9036121368408203125,464
190,1455485276.95334601402282714844,400
191,1455485277.00452828407287597656,376
192,1455485277.05424284934997558594,408
193,1455485277.10349321365356445312,480
194,1455485277.153324127197265625,560
195,1455485277.20431637763977050781,608
196,1455485277.253818511962890625,600
197,1455485277.30354976654052734375,544
198,1455485277.35340237617492675781,456
199,1455485277.40400862693786621094,392
200,1455485277.45442342758178710938,376
201,1455485277.50401425361633300781,416
202,1455485277.55386209487915039062,488
203,1455485277.60356163978576660156,568
204,1455485277.65299153327941894531,608
205,1455485277.70544219017028808594,592
206,1455485277.75375723838806152344,536
207,1455485277.80388593673706054688,448
208,1455485277.85450100898742675781,384
209,1455485277.904262542724609375,376
210,1455485277.95391750335693359375,416
211,1455485278.00645780563354492188,504
212,1455485278.05404806137084960938,576
213,1455485278.10368442535400390625,608
214,1455485278.15417408943176269531,592
215,1455485278.20372414588928222656,520
216,1455485278.25355815887451171875,440
217,1455485278.30398678779602050781,384
218,1455485278.35329866409301757812,376
219,1455485278.40361523628234863281,424
220,1455485278.45303964614868164062,504
221,1455485278.50575232505798339844,584
222,1455485278.55323457717895507812,608
223,1455485278.60392236709594726562,584
224,1455485278.65555620193481445312,512
225,1455485278.70397901535034179688,432
226,1455485278.75390529632568359375,376
227,1455485278.80346584320068359375,376
228,1455485278.85336732864379882812,432
229,1455485278.905605316162109375,520
230,1455485278.95346522331237792969,584
231,1455485279.00425052642822265625,608
232,1455485279.05556964874267578125,576
233,1455485279.10315370559692382812,504
234,1455485279.15407347679138183594,424
235,1455485279.20402216911315917969,376
236,1455485279.25376987457275390625,384
237,1455485279.30346846580505371094,440
238,1455485279.35402798652648925781,528
239,1455485279.40406727790832519531,592
240,1455485279.45411753654479980469,608
241,1455485279.50299501419067382812,576
242,1455485279.55328059196472167969,496
243,1455485279.60399413108825683594,416
244,1455485279.65408921241760253906,376
245,1455485279.70389103889465332031,392
246,1455485279.75375723838806152344,448
247,1455485279.80380725860595703125,536
248,1455485279.85414958000183105469,600
249,1455485279.90392971038818359375,608
250,1455485279.95323872566223144531,568
251,1455485280.00355648994445800781,488
252,1455485280.05411767959594726562,408
253,1455485280.10586452484130859375,376
254,1455485280.15400528907775878906,392
255,1455485280.20389318466186523438,464
256,1455485280.25549244880676269531,544
257,1455485280.30372500419616699219,600
258,1455485280.35381722450256347656,608
259,1455485280.40389728546142578125,560
260,1455485280.45401525497436523438,472
261,1455485280.50354051589965820312,400
262,1455485280.55340361595153808594,376
263,1455485280.60431790351867675781,400
264,1455485280.65299153327941894531,472
265,1455485280.70306944847106933594,552
266,1455485280.75326275825500488281,608
267,1455485280.80404686927795410156,600
268,1455485280.85414028167724609375,552
269,1455485280.90416288375854492188,464
270,1455485280.95299959182739257812,400
271,1455485281.00406146049499511719,376
272,1455485281.05507397651672363281,408
273,1455485281.10326385498046875,480
274,1455485281.15326333045959472656,560
275,1455485281.20397639274597167969,608
276,1455485281.25393366813659667969,600
277,1455485281.30495619773864746094,536
278,1455485281.35373258590698242188,456
279,1455485281.40399909019470214844,392
280,1455485281.45471501350402832031,376
281,1455485281.50390720367431640625,408
282,1455485281.55412125587463378906,488
283,1455485281.60397934913635253906,568
284,1455485281.65326166152954101562,608
285,1455485281.70412659645080566406,592
286,1455485281.75332736968994140625,536
287,1455485281.8043804168701171875,448
288,1455485281.85403704643249511719,384
289,1455485281.90348935127258300781,376
290,1455485281.95389437675476074219,416
291,1455485282.00391173362731933594,496
292,1455485282.05416655540466308594,576
293,1455485282.10443782806396484375,608
294,1455485282.15303874015808105469,592
295,1455485282.20347619056701660156,520
296,1455485282.25449299812316894531,440
297,1455485282.30350327491760253906,384
298,1455485282.35360884666442871094,376
299,1455485282.40319728851318359375,424
300,1455485282.45431423187255859375,512
301,1455485282.50398755073547363281,584
302,1455485282.55402398109436035156,608
303,1455485282.60366201400756835938,584
304,1455485282.65531134605407714844,512
305,1455485282.70363521575927734375,432
306,1455485282.75378656387329101562,376
307,1455485282.80397868156433105469,384
308,1455485282.85383820533752441406,432
309,1455485282.90367293357849121094,520
310,1455485282.95337891578674316406,584
311,1455485283.00379514694213867188,496
312,1455485283.05470943450927734375,576
313,1455485283.10400342941284179688,608
314,1455485283.153778076171875,592
315,1455485283.20371341705322265625,520
316,1455485283.25358748435974121094,440
317,1455485283.30615329742431640625,384
318,1455485283.35398769378662109375,376
319,1455485283.40383434295654296875,424
320,1455485283.45451474189758300781,512
321,1455485283.50322365760803222656,584
322,1455485283.55368113517761230469,608
323,1455485283.60345411300659179688,584
324,1455485283.65321779251098632812,512
325,1455485283.70358586311340332031,432
326,1455485283.75353860855102539062,376
327,1455485283.80349063873291015625,376
328,1455485283.85554218292236328125,440
329,1455485283.90367388725280761719,520
330,1455485283.95306086540222167969,584
331,1455485284.0045928955078125,608
332,1455485284.05355381965637207031,576
333,1455485284.10391712188720703125,504
334,1455485284.15302228927612304688,424
335,1455485284.20401406288146972656,376
336,1455485284.25346136093139648438,384
337,1455485284.30299901962280273438,440
338,1455485284.35309433937072753906,528
339,1455485284.40375590324401855469,592
340,1455485284.45399427413940429688,608
341,1455485284.5048274993896484375,568
342,1455485284.55360841751098632812,496
343,1455485284.6030788421630859375,416
344,1455485284.65480327606201171875,376
345,1455485284.70306873321533203125,384
346,1455485284.7540149688720703125,456
347,1455485284.80366611480712890625,536
348,1455485284.85391092300415039062,600
349,1455485284.90383148193359375,608
350,1455485284.95404171943664550781,568
351,1455485285.0037288665771484375,488
352,1455485285.05571198463439941406,408
353,1455485285.10363698005676269531,376
354,1455485285.15341091156005859375,392
355,1455485285.20303440093994140625,456
356,1455485285.25358676910400390625,544
357,1455485285.3041172027587890625,600
358,1455485285.35367608070373535156,608
359,1455485285.40440344810485839844,560
360,1455485285.45464015007019042969,472
361,1455485285.50374078750610351562,400
362,1455485285.55355954170227050781,376
363,1455485285.60338950157165527344,400
364,1455485285.6532382965087890625,472
365,1455485285.70470023155212402344,552
366,1455485285.75335693359375,608
367,1455485285.80389046669006347656,600
368,1455485285.85560846328735351562,544
369,1455485285.90328311920166015625,464
370,1455485285.95341730117797851562,400
371,1455485286.00354266166687011719,376
372,1455485286.05321836471557617188,408
373,1455485286.10553669929504394531,480
374,1455485286.15353822708129882812,560
375,1455485286.20402836799621582031,608
376,1455485286.25463604927062988281,600
377,1455485286.30367946624755859375,544
378,1455485286.35311865806579589844,456
379,1455485286.40396237373352050781,392
380,1455485286.45360779762268066406,376
381,1455485286.504642486572265625,416
382,1455485286.55313992500305175781,488
383,1455485286.60384535789489746094,568
384,1455485286.65433025360107421875,608
385,1455485286.70413255691528320312,592
386,1455485286.75372004508972167969,536
387,1455485286.80386042594909667969,448
388,1455485286.85339212417602539062,384
389,1455485286.90437364578247070312,376
390,1455485286.95360541343688964844,416
391,1455485287.00459432601928710938,496
392,1455485287.05422616004943847656,576
393,1455485287.10404181480407714844,608
394,1455485287.15348529815673828125,592
395,1455485287.20314311981201171875,528
396,1455485287.25354218482971191406,440
397,1455485287.30484175682067871094,384
398,1455485287.35378861427307128906,376
399,1455485287.40361952781677246094,424
400,1455485287.45542955398559570312,512
401,1455485287.50300741195678710938,584
402,1455485287.55535435676574707031,608
403,1455485287.6033115386962890625,584
404,1455485287.65378642082214355469,512
405,1455485287.70442485809326171875,432
406,1455485287.75402235984802246094,376
407,1455485287.804065704345703125,384
408,1455485287.85468959808349609375,440
409,1455485287.90354704856872558594,520
410,1455485287.95346164703369140625,584
411,1455485288.00327801704406738281,608
412,1455485288.0532970428466796875,576
413,1455485288.1059970855712890625,504
414,1455485288.15405392646789550781,424
415,1455485288.20401930809020996094,376
416,1455485288.2547473907470703125,384
417,1455485288.30301499366760253906,440
418,1455485288.35337018966674804688,528
419,1455485288.40421247482299804688,592
420,1455485288.45396518707275390625,608
421,1455485288.50422358512878417969,568
422,1455485288.55333948135375976562,496
423,1455485288.60342764854431152344,416
424,1455485288.65488409996032714844,376
425,1455485288.70316171646118164062,384
426,1455485288.753963470458984375,456
427,1455485288.80405855178833007812,536
428,1455485288.8539485931396484375,600
429,1455485288.90326690673828125,608
430,1455485288.95392251014709472656,568
431,1455485289.00383687019348144531,488
432,1455485289.05480360984802246094,408
433,1455485289.10367822647094726562,376
434,1455485289.15348196029663085938,392
435,1455485289.20330739021301269531,464
436,1455485289.25413942337036132812,544
437,1455485289.30410671234130859375,600
438,1455485289.35400080680847167969,608
439,1455485289.40365099906921386719,560
440,1455485289.45465946197509765625,472
441,1455485289.50340390205383300781,400
442,1455485289.55361700057983398438,376
443,1455485289.60346961021423339844,400
444,1455485289.65404725074768066406,472
445,1455485289.70573163032531738281,552
446,1455485289.75373029708862304688,608
447,1455485289.80405354499816894531,600
448,1455485289.85521459579467773438,544
449,1455485289.90378165245056152344,464
450,1455485289.95367550849914550781,400
451,1455485290.0034732818603515625,376
452,1455485290.05351543426513671875,408
453,1455485290.10326457023620605469,480
454,1455485290.15329599380493164062,560
455,1455485290.20449519157409667969,608
456,1455485290.25415897369384765625,600
457,1455485290.30301237106323242188,544
458,1455485290.35371923446655273438,456
459,1455485290.40372371673583984375,392
460,1455485290.45349478721618652344,376
461,1455485290.50377964973449707031,408
462,1455485290.55374050140380859375,488
463,1455485290.60386228561401367188,568
464,1455485290.6548595428466796875,608
465,1455485290.70396184921264648438,592
466,1455485290.75386190414428710938,528
467,1455485290.80347919464111328125,448
468,1455485290.85339474678039550781,384
469,1455485290.90572476387023925781,376
470,1455485290.95389485359191894531,416
471,1455485291.004100799560546875,496
472,1455485291.05453133583068847656,576
473,1455485291.103900909423828125,608
474,1455485291.15307068824768066406,592
475,1455485291.20300388336181640625,528
476,1455485291.25336813926696777344,440
477,1455485291.30379343032836914062,384
478,1455485291.35402059555053710938,376
479,1455485291.40403223037719726562,424
480,1455485291.45471239089965820312,512
481,1455485291.50376272201538085938,584
482,1455485291.55345416069030761719,608
483,1455485291.60326981544494628906,584
484,1455485291.65339303016662597656,512
485,1455485291.70626497268676757812,432
486,1455485291.75324106216430664062,376
487,1455485291.80418848991394042969,384
488,1455485291.85420155525207519531,432
489,1455485291.90319728851318359375,520
490,1455485291.95373177528381347656,584
491,1455485292.00361943244934082031,496
492,1455485292.05347943305969238281,576
493,1455485292.10419559478759765625,608
494,1455485292.15361714363098144531,592
495,1455485292.20340895652770996094,520
496,1455485292.25517868995666503906,440
497,1455485292.30400633811950683594,384
498,1455485292.35366225242614746094,376
499,1455485292.40338182449340820312,424
500,1455485292.45299267768859863281,504
501,1455485292.50497007369995117188,584
502,1455485292.55334949493408203125,608
503,1455485292.60432505607604980469,584
