id, time (s), size (bits)
0,1455485268.148151397705078125,552
1,1455485268.19861173629760742188,608
2,1455485268.24781131744384765625,608
3,1455485268.29857730865478515625,552
4,1455485268.34872674942016601562,464
5,1455485268.39842176437377929688,400
6,1455485268.44886422157287597656,376
7,1455485268.49837779998779296875,408
8,1455485268.54811334609985351562,480
9,1455485268.59864377975463867188,560
10,1455485268.65022253990173339844,608
11,1455485268.69841623306274414062,600
12,1455485268.74900889396667480469,536
13,1455485268.7986202239990234375,456
14,1455485268.84814286231994628906,392
15,1455485268.89887714385986328125,376
16,1455485268.94843626022338867188,408
17,1455485268.99850130081176757812,488
18,1455485269.04853153228759765625,568
19,1455485269.0981388092041015625,608
20,1455485269.14883446693420410156,592
21,1455485269.19831967353820800781,528
22,1455485269.24793195724487304688,448
23,1455485269.29892873764038085938,384
24,1455485269.34841060638427734375,376
25,1455485269.39839291572570800781,416
26,1455485269.44818377494812011719,496
27,1455485269.49880242347717285156,576
28,1455485269.54832673072814941406,608
29,1455485269.59788537025451660156,592
30,1455485269.648380279541015625,520
31,1455485269.69834113121032714844,440
32,1455485269.75005269050598144531,384
33,1455485269.79854989051818847656,376
34,1455485269.8485431671142578125,424
35,1455485269.89897036552429199219,512
36,1455485269.94822287559509277344,584
37,1455485269.99836039543151855469,608
38,1455485270.04842233657836914062,584
39,1455485270.09830832481384277344,512
40,1455485270.14795422554016113281,432
41,1455485270.19891881942749023438,376
42,1455485270.24834775924682617188,384
43,1455485270.29851222038269042969,432
44,1455485270.34857869148254394531,520
45,1455485270.3986301422119140625,584
46,1455485270.44840908050537109375,608
47,1455485270.4985980987548828125,576
48,1455485270.54823637008666992188,504
49,1455485270.597991943359375,424
50,1455485270.64866304397583007812,376
51,1455485270.69804668426513671875,384
52,1455485270.74789071083068847656,440
53,1455485270.79892516136169433594,528
54,1455485270.85020542144775390625,592
55,1455485270.89906835556030273438,608
56,1455485270.94831252098083496094,576
57,1455485270.99801588058471679688,496
58,1455485271.04766511917114257812,416
59,1455485271.09840679168701171875,376
60,1455485271.14828658103942871094,392
61,1455485271.19766306877136230469,448
62,1455485271.24894261360168457031,536
63,1455485271.29867982864379882812,600
64,1455485271.34821271896362304688,608
65,1455485271.39868116378784179688,568
66,1455485271.448558807373046875,488
67,1455485271.49850487709045410156,408
68,1455485271.5486202239990234375,376
69,1455485271.59841871261596679688,392
70,1455485271.64812731742858886719,464
71,1455485271.69791769981384277344,544
72,1455485271.74851775169372558594,600
73,1455485271.7977390289306640625,608
74,1455485271.84838008880615234375,560
75,1455485271.89807796478271484375,480
76,1455485271.94898819923400878906,400
77,1455485271.99885129928588867188,376
78,1455485272.04791522026062011719,400
79,1455485272.09855389595031738281,472
80,1455485272.14826107025146484375,552
81,1455485272.19796013832092285156,608
82,1455485272.2485790252685546875,600
83,1455485272.29866647720336914062,552
84,1455485272.34861660003662109375,464
85,1455485272.39845967292785644531,400
86,1455485272.44878935813903808594,376
87,1455485272.49826884269714355469,408
88,1455485272.54770374298095703125,480
89,1455485272.59857106208801269531,560
90,1455485272.64863443374633789062,608
91,1455485272.69852542877197265625,600
92,1455485272.74825930595397949219,544
93,1455485272.79811596870422363281,456
94,1455485272.84802532196044921875,392
95,1455485272.89906215667724609375,376
96,1455485272.94870305061340332031,416
97,1455485272.99834418296813964844,488
98,1455485273.04776334762573242188,568
99,1455485273.09766745567321777344,608
100,1455485273.14858698844909667969,592
101,1455485273.19856214523315429688,528
102,1455485273.2483234405517578125,448
103,1455485273.29879117012023925781,384
104,1455485273.34877729415893554688,376
105,1455485273.39836716651916503906,416
106,1455485273.44781851768493652344,496
107,1455485273.49836182594299316406,576
108,1455485273.54833221435546875,608
109,1455485273.59851336479187011719,592
110,1455485273.64799857139587402344,520
111,1455485273.69885301589965820312,440
112,1455485273.74801683425903320312,384
113,1455485273.7987995147705078125,376
114,1455485273.84814500808715820312,424
115,1455485273.89792895317077636719,504
116,1455485273.94870543479919433594,584
117,1455485273.99833798408508300781,608
118,1455485274.04888701438903808594,568
119,1455485274.09908080101013183594,608
120,1455485274.14830684661865234375,592
121,1455485274.19799089431762695312,536
122,1455485274.24861264228820800781,448
123,1455485274.29862737655639648438,384
124,1455485274.34813356399536132812,376
125,1455485274.39806485176086425781,416
126,1455485274.44863820075988769531,496
127,1455485274.49869251251220703125,576
128,1455485274.54792714118957519531,608
129,1455485274.59822607040405273438,592
130,1455485274.64827108383178710938,520
131,1455485274.69852423667907714844,440
132,1455485274.74837899208068847656,384
133,1455485274.79799556732177734375,376
134,1455485274.84986138343811035156,432
135,1455485274.89988589286804199219,512
136,1455485274.94850015640258789062,584
137,1455485274.9981784820556640625,608
138,1455485275.04937434196472167969,584
139,1455485275.09891843795776367188,512
140,1455485275.1483612060546875,432
141,1455485275.19787502288818359375,376
142,1455485275.24842572212219238281,384
143,1455485275.29840326309204101562,432
144,1455485275.34782648086547851562,520
145,1455485275.39829015731811523438,584
146,1455485275.44885993003845214844,608
147,1455485275.49793267250061035156,576
148,1455485275.54792642593383789062,504
149,1455485275.59845089912414550781,424
150,1455485275.64795970916748046875,376
151,1455485275.69767427444458007812,384
152,1455485275.747776031494140625,440
153,1455485275.79859018325805664062,528
154,1455485275.84841275215148925781,592
155,1455485275.89805746078491210938,608
156,1455485275.94768881797790527344,576
157,1455485275.99796462059020996094,496
158,1455485276.047893524169921875,416
159,1455485276.09785628318786621094,376
160,1455485276.14855813980102539062,392
161,1455485276.19865846633911132812,456
162,1455485276.24815440177917480469,536
163,1455485276.29801034927368164062,600
164,1455485276.34852433204650878906,608
165,1455485276.39789485931396484375,568
166,1455485276.44774293899536132812,488
167,1455485276.49988222122192382812,408
168,1455485276.54831385612487792969,376
169,1455485276.59843111038208007812,392
170,1455485276.64764356613159179688,464
171,1455485276.69790005683898925781,544
172,1455485276.7487277984619140625,600
173,1455485276.79850029945373535156,608
174,1455485276.84801483154296875,560
175,1455485276.89874887466430664062,472
176,1455485276.94857692718505859375,400
177,1455485276.9984836578369140625,376
178,1455485277.04817938804626464844,400
179,1455485277.09824275970458984375,472
180,1455485277.14867305755615234375,552
181,1455485277.19884586334228515625,608
182,1455485277.24796652793884277344,608
183,1455485277.29821372032165527344,552
184,1455485277.34795403480529785156,464
185,1455485277.39869666099548339844,400
186,1455485277.44842123985290527344,376
187,1455485277.49859714508056640625,408
188,1455485277.54853749275207519531,480
189,1455485277.59800648689270019531,560
190,1455485277.64813899993896484375,608
191,1455485277.69896078109741210938,600
192,1455485277.74826741218566894531,544
193,1455485277.79812693595886230469,456
194,1455485277.84923100471496582031,392
195,1455485277.89884495735168457031,376
196,1455485277.94830799102783203125,408
197,1455485277.99812626838684082031,488
198,1455485278.04860830307006835938,568
199,1455485278.09838080406188964844,608
200,1455485278.14832258224487304688,592
201,1455485278.1977787017822265625,536
202,1455485278.24864721298217773438,448
203,1455485278.2984638214111328125,384
204,1455485278.34808063507080078125,376
205,1455485278.39808678627014160156,416
206,1455485278.44840669631958007812,496
207,1455485278.49832439422607421875,576
208,1455485278.548625946044921875,608
209,1455485278.59853982925415039062,592
210,1455485278.64814114570617675781,520
211,1455485278.69871830940246582031,440
212,1455485278.74827885627746582031,384
213,1455485278.7979297637939453125,376
214,1455485278.84820079803466796875,424
215,1455485278.89877271652221679688,512
216,1455485278.94834494590759277344,584
217,1455485278.9987506866455078125,608
218,1455485279.0487232208251953125,584
219,1455485279.09841966629028320312,512
220,1455485279.14840221405029296875,432
221,1455485279.19820356369018554688,376
222,1455485279.24813914299011230469,376
223,1455485279.29929471015930175781,440
224,1455485279.348308563232421875,520
225,1455485279.39821004867553710938,584
226,1455485279.44788098335266113281,608
227,1455485279.4989776611328125,576
228,1455485279.548675537109375,504
229,1455485279.59833812713623046875,424
230,1455485279.64885449409484863281,376
231,1455485279.6985931396484375,384
232,1455485279.7479724884033203125,440
233,1455485279.79855656623840332031,528
234,1455485279.84838271141052246094,592
235,1455485279.89823794364929199219,608
236,1455485279.94817042350769042969,576
237,1455485279.99910092353820800781,496
238,1455485280.04763197898864746094,416
239,1455485280.09873819351196289062,376
240,1455485280.14832162857055664062,392
241,1455485280.19857311248779296875,456
242,1455485280.24841356277465820312,536
243,1455485280.29774165153503417969,600
244,1455485280.34905123710632324219,608
245,1455485280.39897847175598144531,568
246,1455485280.44874835014343261719,488
247,1455485280.49903130531311035156,408
248,1455485280.54849076271057128906,376
249,1455485280.59868359565734863281,392
250,1455485280.64851498603820800781,464
251,1455485280.69828534126281738281,544
252,1455485280.74798727035522460938,600
253,1455485280.79862689971923828125,608
254,1455485280.84824919700622558594,560
255,1455485280.8991260528564453125,472
256,1455485280.94797396659851074219,400
257,1455485280.99789404869079589844,376
258,1455485281.04895687103271484375,400
259,1455485281.09864377975463867188,472
260,1455485281.14813899993896484375,552
261,1455485281.19784998893737792969,608
262,1455485281.24878644943237304688,600
263,1455485281.2990550994873046875,544
264,1455485281.34795689582824707031,464
265,1455485281.3986949920654296875,400
266,1455485281.44843792915344238281,376
267,1455485281.49823498725891113281,408
268,1455485281.54795479774475097656,480
269,1455485281.59888005256652832031,560
270,1455485281.64775252342224121094,608
271,1455485281.69805216789245605469,600
272,1455485281.74868798255920410156,544
273,1455485281.7983951568603515625,456
274,1455485281.84820389747619628906,392
275,1455485281.89870452880859375,376
276,1455485281.94829082489013671875,408
277,1455485281.99878215789794921875,488
278,1455485282.048126220703125,568
279,1455485282.09834694862365722656,608
280,1455485282.14867496490478515625,592
281,1455485282.1987133026123046875,528
282,1455485282.24839162826538085938,448
283,1455485282.29796862602233886719,384
284,1455485282.34859991073608398438,376
285,1455485282.39852476119995117188,416
286,1455485282.44849228858947753906,496
287,1455485282.49880933761596679688,576
288,1455485282.54823541641235351562,608
289,1455485282.59836459159851074219,592
290,1455485282.64794898033142089844,520
291,1455485282.69787144660949707031,440
292,1455485282.74850344657897949219,384
293,1455485282.7986698150634765625,376
294,1455485282.84836840629577636719,424
295,1455485282.8983173370361328125,504
296,1455485282.94798636436462402344,584
297,1455485282.99822998046875,608
298,1455485283.04823160171508789062,568
299,1455485283.09875988960266113281,608
300,1455485283.14865589141845703125,592
301,1455485283.19875001907348632812,528
302,1455485283.24889063835144042969,448
303,1455485283.29773569107055664062,384
304,1455485283.3478794097900390625,376
305,1455485283.39905047416687011719,424
306,1455485283.44775295257568359375,496
307,1455485283.49874258041381835938,576
308,1455485283.54784679412841796875,608
309,1455485283.59852194786071777344,592
310,1455485283.64799094200134277344,520
311,1455485283.69907879829406738281,440
312,1455485283.74867129325866699219,384
313,1455485283.79794621467590332031,376
314,1455485283.84772944450378417969,424
315,1455485283.89764857292175292969,504
316,1455485283.94804835319519042969,584
317,1455485283.99897146224975585938,608
318,1455485284.04765844345092773438,584
319,1455485284.09777593612670898438,512
320,1455485284.14809155464172363281,432
321,1455485284.19877552986145019531,376
322,1455485284.24870061874389648438,384
323,1455485284.29810404777526855469,432
324,1455485284.34769701957702636719,520
325,1455485284.39847016334533691406,584
326,1455485284.44884467124938964844,608
327,1455485284.49869179725646972656,576
328,1455485284.54870367050170898438,504
329,1455485284.59902048110961914062,424
330,1455485284.64809679985046386719,376
331,1455485284.6985492706298828125,384
332,1455485284.74780035018920898438,440
333,1455485284.79833197593688964844,528
334,1455485284.8486328125,592
335,1455485284.89881777763366699219,608
336,1455485284.94879031181335449219,568
337,1455485284.9981555938720703125,496
338,1455485285.04870128631591796875,416
339,1455485285.09817337989807128906,376
340,1455485285.148036956787109375,384
341,1455485285.19896626472473144531,456
342,1455485285.24856352806091308594,536
343,1455485285.298480987548828125,600
344,1455485285.34793949127197265625,608
345,1455485285.39864039421081542969,568
346,1455485285.44859814643859863281,488
347,1455485285.49845433235168457031,408
348,1455485285.54772520065307617188,376
349,1455485285.59859561920166015625,392
350,1455485285.64850950241088867188,464
351,1455485285.6983547210693359375,544
352,1455485285.7476940155029296875,600
353,1455485285.79846644401550292969,608
354,1455485285.84822297096252441406,560
355,1455485285.89787960052490234375,480
356,1455485285.94864773750305175781,400
357,1455485285.99829363822937011719,376
358,1455485286.04797697067260742188,400
359,1455485286.09871411323547363281,472
360,1455485286.14834260940551757812,552
361,1455485286.19816422462463378906,608
362,1455485286.2479419708251953125,608
363,1455485286.29890727996826171875,552
364,1455485286.34852719306945800781,464
365,1455485286.39953398704528808594,392
366,1455485286.44825601577758789062,376
367,1455485286.49773097038269042969,408
368,1455485286.54845499992370605469,480
369,1455485286.59791541099548339844,560
370,1455485286.64866995811462402344,608
371,1455485286.69834232330322265625,600
372,1455485286.74899172782897949219,536
373,1455485286.80071139335632324219,456
374,1455485286.84877705574035644531,392
375,1455485286.89884686470031738281,376
376,1455485286.94840312004089355469,408
377,1455485286.99835300445556640625,488
378,1455485287.04772257804870605469,568
379,1455485287.09766054153442382812,608
380,1455485287.14837956428527832031,592
381,1455485287.19878506660461425781,528
382,1455485287.24816441535949707031,448
383,1455485287.29890108108520507812,384
384,1455485287.3484706878662109375,376
385,1455485287.39885663986206054688,416
386,1455485287.44834494590759277344,496
387,1455485287.49867105484008789062,576
388,1455485287.54857707023620605469,608
389,1455485287.59876298904418945312,592
390,1455485287.650653839111328125,520
391,1455485287.69876623153686523438,440
392,1455485287.74794602394104003906,384
393,1455485287.79814434051513671875,376
394,1455485287.84833168983459472656,424
395,1455485287.89855813980102539062,512
396,1455485287.94840574264526367188,584
397,1455485287.99784779548645019531,608
398,1455485288.04895901679992675781,584
399,1455485288.10018444061279296875,512
400,1455485288.14793682098388671875,432
401,1455485288.19886541366577148438,376
402,1455485288.24846434593200683594,384
403,1455485288.29843354225158691406,432
404,1455485288.34817266464233398438,520
405,1455485288.39775180816650390625,584
406,1455485288.44812774658203125,608
407,1455485288.49895167350769042969,576
408,1455485288.54787969589233398438,504
409,1455485288.59804487228393554688,424
410,1455485288.64868307113647460938,376
411,1455485288.69825887680053710938,384
412,1455485288.7482738494873046875,440
413,1455485288.7979564666748046875,528
414,1455485288.84863615036010742188,592
415,1455485288.89890599250793457031,608
416,1455485288.94833779335021972656,576
417,1455485288.99835133552551269531,496
418,1455485289.04804587364196777344,416
419,1455485289.09898209571838378906,376
420,1455485289.14848351478576660156,392
421,1455485289.19801878929138183594,448
422,1455485289.24779653549194335938,536
423,1455485289.29905819892883300781,600
424,1455485289.34868931770324707031,608
425,1455485289.39831018447875976562,568
426,1455485289.44842028617858886719,488
427,1455485289.49815249443054199219,408
428,1455485289.54796576499938964844,376
429,1455485289.59771132469177246094,392
430,1455485289.64851069450378417969,464
431,1455485289.69885039329528808594,544
432,1455485289.7477893829345703125,600
433,1455485289.79864048957824707031,608
434,1455485289.84824395179748535156,560
435,1455485289.89805197715759277344,480
436,1455485289.94886279106140136719,400
437,1455485289.99889016151428222656,376
438,1455485290.04843831062316894531,400
439,1455485290.09888219833374023438,472
440,1455485290.148380279541015625,552
441,1455485290.197689056396484375,608
442,1455485290.24833989143371582031,600
443,1455485290.29812788963317871094,552
444,1455485290.34870839118957519531,464
445,1455485290.39881420135498046875,400
446,1455485290.44862818717956542969,376
447,1455485290.49884462356567382812,408
448,1455485290.54832172393798828125,480
449,1455485290.59897136688232421875,560
450,1455485290.64849066734313964844,608
451,1455485290.69816279411315917969,600
452,1455485290.74860405921936035156,544
453,1455485290.79767584800720214844,456
454,1455485290.84893083572387695312,392
455,1455485290.89894437789916992188,376
456,1455485290.94852113723754882812,416
457,1455485290.99860477447509765625,488
458,1455485291.04820966720581054688,568
459,1455485291.09764146804809570312,608
460,1455485291.14872336387634277344,592
461,1455485291.19796609878540039062,536
462,1455485291.24862599372863769531,448
463,1455485291.29844236373901367188,384
464,1455485291.34832429885864257812,376
465,1455485291.39859318733215332031,416
466,1455485291.44822525978088378906,496
467,1455485291.498706817626953125,576
468,1455485291.54882931709289550781,608
469,1455485291.59855699539184570312,592
470,1455485291.648410797119140625,520
471,1455485291.69873976707458496094,440
472,1455485291.74805116653442382812,384
473,1455485291.79868340492248535156,376
474,1455485291.84770083427429199219,424
475,1455485291.89856219291687011719,512
476,1455485291.94774651527404785156,584
477,1455485291.99866890907287597656,608
478,1455485292.04786276817321777344,568
479,1455485292.09802794456481933594,608
480,1455485292.14869832992553710938,592
481,1455485292.19857907295227050781,528
482,1455485292.24842333793640136719,448
483,1455485292.29814910888671875,384
484,1455485292.34872937202453613281,376
485,1455485292.39842104911804199219,416
486,1455485292.447856903076171875,496
487,1455485292.49884891510009765625,576
488,1455485292.54844880104064941406,608
489,1455485292.59822154045104980469,592
490,1455485292.64774680137634277344,520
491,1455485292.69881391525268554688,440
492,1455485292.7484111785888671875,384
493,1455485292.79777932167053222656,376
494,1455485292.84927773475646972656,432
495,1455485292.89839148521423339844,504
496,1455485292.94784832000732421875,584
497,1455485292.998626708984375,608
498,1455485293.04840707778930664062,584
499,1455485293.09830570220947265625,512
500,1455485293.1484241485595703125,432
501,1455485293.19831323623657226562,376
502,1455485293.24774336814880371094,376
503,1455485293.29888558387756347656,432
504,1455485293.34797501564025878906,520
