id, time (s), size (bits)
0,1455475437.04301548004150390625,560
1,1455475437.0927791595458984375,608
2,1455475437.142330169677734375,600
3,1455475437.19172978401184082031,544
4,1455475437.24205636978149414062,456
5,1455475437.29220914840698242188,392
6,1455475437.3419933319091796875,376
7,1455475437.39232635498046875,408
8,1455475437.44176578521728515625,488
9,1455475437.49220037460327148438,568
10,1455475437.54191708564758300781,608
11,1455475437.59254765510559082031,600
12,1455475437.64208054542541503906,536
13,1455475437.69182682037353515625,448
14,1455475437.74198079109191894531,384
15,1455475437.79279589653015136719,376
16,1455475437.84236884117126464844,416
17,1455475437.892635345458984375,496
18,1455475437.9426784515380859375,576
19,1455475437.99230360984802246094,608
20,1455475438.04283809661865234375,592
21,1455475438.09256052970886230469,520
22,1455475438.14245676994323730469,440
23,1455475438.19266080856323242188,384
24,1455475438.24235892295837402344,376
25,1455475438.29206895828247070312,424
26,1455475438.34256982803344726562,504
27,1455475438.39258146286010742188,584
28,1455475438.44227480888366699219,608
29,1455475438.49216532707214355469,584
30,1455475438.54178905487060546875,512
31,1455475438.59246063232421875,432
32,1455475438.64190435409545898438,376
33,1455475438.69274759292602539062,384
34,1455475438.7425537109375,432
35,1455475438.79226016998291015625,520
36,1455475438.84197020530700683594,584
37,1455475438.89269399642944335938,608
38,1455475438.94264745712280273438,576
39,1455475438.99235391616821289062,504
40,1455475439.04244542121887207031,424
41,1455475439.09244823455810546875,376
42,1455475439.14217042922973632812,384
43,1455475439.19286346435546875,440
44,1455475439.2425785064697265625,528
45,1455475439.29253411293029785156,592
46,1455475439.34231781959533691406,608
47,1455475439.39218878746032714844,576
48,1455475439.44182944297790527344,496
49,1455475439.49248433113098144531,416
50,1455475439.54233074188232421875,376
51,1455475439.59268116950988769531,392
52,1455475439.64247012138366699219,448
53,1455475439.69216704368591308594,536
54,1455475439.74194884300231933594,600
55,1455475439.79265046119689941406,608
56,1455475439.84256219863891601562,568
57,1455475439.89267063140869140625,488
58,1455475439.94233679771423339844,408
59,1455475439.99222612380981445312,376
60,1455475440.04185724258422851562,392
61,1455475440.09264469146728515625,464
62,1455475440.1423282623291015625,544
63,1455475440.19275546073913574219,600
64,1455475440.2424716949462890625,608
65,1455475440.29246997833251953125,560
66,1455475440.34261083602905273438,480
67,1455475440.39252638816833496094,400
68,1455475440.44251894950866699219,376
69,1455475440.49221396446228027344,400
70,1455475440.54256582260131835938,472
71,1455475440.59232330322265625,552
72,1455475440.64224481582641601562,608
73,1455475440.69266843795776367188,608
74,1455475440.74245333671569824219,552
75,1455475440.79220438003540039062,464
76,1455475440.8417911529541015625,400
77,1455475440.89277338981628417969,376
78,1455475440.94260668754577636719,408
79,1455475440.99236845970153808594,480
80,1455475441.04208421707153320312,560
81,1455475441.09299325942993164062,608
82,1455475441.14268136024475097656,600
83,1455475441.19262862205505371094,544
84,1455475441.24237775802612304688,456
85,1455475441.29243993759155273438,392
86,1455475441.34272980690002441406,376
87,1455475441.39241671562194824219,408
88,1455475441.44255018234252929688,488
89,1455475441.49230265617370605469,568
90,1455475441.54232573509216308594,608
91,1455475441.59270429611206054688,592
92,1455475441.64250230789184570312,536
93,1455475441.69219684600830078125,448
94,1455475441.74180817604064941406,384
95,1455475441.79264068603515625,376
96,1455475441.84237694740295410156,416
97,1455475441.89265394210815429688,496
98,1455475441.94233751296997070312,576
99,1455475441.99225902557373046875,608
100,1455475442.04282212257385253906,592
101,1455475442.09269618988037109375,520
102,1455475442.14240026473999023438,440
103,1455475442.19208550453186035156,384
104,1455475442.24210119247436523438,376
105,1455475442.29272556304931640625,424
106,1455475442.342639923095703125,504
107,1455475442.39230561256408691406,584
108,1455475442.44264197349548339844,608
109,1455475442.49240255355834960938,584
110,1455475442.54223585128784179688,512
111,1455475442.59181451797485351562,432
112,1455475442.64249539375305175781,376
113,1455475442.69232892990112304688,376
114,1455475442.74258184432983398438,432
115,1455475442.7924747467041015625,520
116,1455475442.84216332435607910156,584
117,1455475442.89292764663696289062,608
118,1455475442.94275355339050292969,576
119,1455475442.99250578880310058594,504
120,1455475443.04222011566162109375,424
121,1455475443.09177041053771972656,376
122,1455475443.14260149002075195312,384
123,1455475443.19262862205505371094,440
124,1455475443.24252414703369140625,528
125,1455475443.29210567474365234375,592
126,1455475443.34289121627807617188,608
127,1455475443.39249658584594726562,576
128,1455475443.44230222702026367188,496
129,1455475443.49257111549377441406,416
130,1455475443.54225921630859375,376
131,1455475443.59210991859436035156,384
132,1455475443.64280223846435546875,456
133,1455475443.69269061088562011719,536
134,1455475443.74263715744018554688,600
135,1455475443.79279756546020507812,608
136,1455475443.84254479408264160156,568
137,1455475443.89233136177062988281,488
138,1455475443.94258737564086914062,408
139,1455475443.99235224723815917969,376
140,1455475444.04229450225830078125,392
141,1455475444.09198236465454101562,456
142,1455475444.14182257652282714844,544
143,1455475444.19250607490539550781,600
144,1455475444.24239039421081542969,608
145,1455475444.29210805892944335938,560
146,1455475444.3429126739501953125,472
147,1455475444.39259290695190429688,400
148,1455475444.4423961639404296875,376
149,1455475444.49237298965454101562,400
150,1455475444.54210591316223144531,472
151,1455475444.59180569648742675781,552
152,1455475444.64249372482299804688,608
153,1455475444.69231724739074707031,608
154,1455475444.74235653877258300781,552
155,1455475444.79220461845397949219,464
156,1455475444.84180617332458496094,400
157,1455475444.89249253273010253906,376
158,1455475444.94252562522888183594,408
159,1455475444.99230647087097167969,480
160,1455475445.04210448265075683594,560
161,1455475445.09270572662353515625,608
162,1455475445.14257049560546875,600
163,1455475445.19229531288146972656,544
164,1455475445.24251604080200195312,456
165,1455475445.29234457015991210938,392
166,1455475445.34200286865234375,376
167,1455475445.39188313484191894531,408
168,1455475445.44259357452392578125,488
169,1455475445.49240350723266601562,568
170,1455475445.54214906692504882812,608
171,1455475445.59189128875732421875,600
172,1455475445.64266109466552734375,536
173,1455475445.69268846511840820312,448
174,1455475445.74237179756164550781,384
175,1455475445.79206728935241699219,376
176,1455475445.84185695648193359375,416
177,1455475445.89266157150268554688,496
178,1455475445.94251728057861328125,576
179,1455475445.99211192131042480469,608
180,1455475446.04184317588806152344,560
181,1455475446.09254121780395507812,608
182,1455475446.14273214340209960938,600
183,1455475446.19258904457092285156,544
184,1455475446.24231123924255371094,456
185,1455475446.29220318794250488281,392
186,1455475446.34272599220275878906,376
187,1455475446.39251041412353515625,408
188,1455475446.44220995903015136719,488
189,1455475446.49203205108642578125,568
190,1455475446.54271721839904785156,608
191,1455475446.59263515472412109375,592
192,1455475446.64235138893127441406,536
193,1455475446.69203996658325195312,448
194,1455475446.74186110496520996094,384
195,1455475446.79264354705810546875,376
196,1455475446.84245777130126953125,416
197,1455475446.89219307899475097656,496
198,1455475446.94194793701171875,576
199,1455475446.99265313148498535156,608
200,1455475447.04256677627563476562,592
201,1455475447.09275412559509277344,520
202,1455475447.14244055747985839844,440
203,1455475447.19267416000366210938,384
204,1455475447.24236035346984863281,376
205,1455475447.29208874702453613281,424
206,1455475447.34257960319519042969,504
207,1455475447.39244437217712402344,584
208,1455475447.44221067428588867188,608
209,1455475447.49209165573120117188,584
210,1455475447.54172992706298828125,512
211,1455475447.59242320060729980469,432
212,1455475447.64273357391357421875,376
213,1455475447.69247221946716308594,376
214,1455475447.74223494529724121094,432
215,1455475447.79179978370666503906,512
216,1455475447.84275412559509277344,584
217,1455475447.89179205894470214844,608
218,1455475447.94258761405944824219,576
219,1455475447.99228978157043457031,504
220,1455475448.04196858406066894531,424
221,1455475448.09174561500549316406,376
222,1455475448.14246249198913574219,384
223,1455475448.19232439994812011719,440
224,1455475448.24219465255737304688,528
225,1455475448.29297137260437011719,592
226,1455475448.34261441230773925781,608
227,1455475448.39241194725036621094,576
228,1455475448.44265723228454589844,496
229,1455475448.49244642257690429688,416
230,1455475448.5423221588134765625,376
231,1455475448.59212064743041992188,384
232,1455475448.64184784889221191406,448
233,1455475448.69253420829772949219,536
234,1455475448.74283075332641601562,600
235,1455475448.79287862777709960938,608
236,1455475448.84271335601806640625,568
237,1455475448.89242839813232421875,488
238,1455475448.94213724136352539062,408
239,1455475448.99257254600524902344,376
240,1455475449.04229021072387695312,392
241,1455475449.09247756004333496094,464
242,1455475449.1422271728515625,544
243,1455475449.19207906723022460938,600
244,1455475449.24194931983947753906,608
245,1455475449.292675018310546875,560
246,1455475449.34238600730895996094,480
247,1455475449.39207220077514648438,400
248,1455475449.44260835647583007812,376
249,1455475449.49230122566223144531,400
250,1455475449.54214072227478027344,472
251,1455475449.59173345565795898438,552
252,1455475449.64265084266662597656,608
253,1455475449.69233036041259765625,608
254,1455475449.74259638786315917969,552
255,1455475449.79239535331726074219,464
256,1455475449.84206891059875488281,400
257,1455475449.89181017875671386719,376
258,1455475449.94253301620483398438,408
259,1455475449.99248528480529785156,480
260,1455475450.04222130775451660156,560
261,1455475450.09194588661193847656,608
262,1455475450.14262151718139648438,600
263,1455475450.19267392158508300781,544
264,1455475450.24239182472229003906,456
265,1455475450.29194498062133789062,392
266,1455475450.34277558326721191406,376
267,1455475450.39250111579895019531,408
268,1455475450.44238615036010742188,488
269,1455475450.49253773689270019531,568
270,1455475450.54232811927795410156,608
271,1455475450.59218764305114746094,600
272,1455475450.64191508293151855469,536
273,1455475450.69265151023864746094,448
274,1455475450.74230098724365234375,384
275,1455475450.79187893867492675781,376
276,1455475450.84261846542358398438,416
277,1455475450.89248752593994140625,496
278,1455475450.94218659400939941406,576
279,1455475450.99195384979248046875,608
280,1455475451.04266119003295898438,592
281,1455475451.09249567985534667969,520
282,1455475451.14271688461303710938,440
283,1455475451.19264078140258789062,384
284,1455475451.24266505241394042969,376
285,1455475451.292301177978515625,424
286,1455475451.34215116500854492188,504
287,1455475451.39279484748840332031,584
288,1455475451.44266510009765625,608
289,1455475451.49237108230590820312,584
290,1455475451.5422229766845703125,512
291,1455475451.5918560028076171875,432
292,1455475451.64251399040222167969,376
293,1455475451.6927280426025390625,384
294,1455475451.74240851402282714844,432
295,1455475451.79228329658508300781,520
296,1455475451.841945648193359375,584
297,1455475451.89275121688842773438,608
298,1455475451.94246220588684082031,576
299,1455475451.99220943450927734375,504
300,1455475452.04241204261779785156,424
301,1455475452.09218430519104003906,376
302,1455475452.14226984977722167969,384
303,1455475452.19194340705871582031,440
304,1455475452.24277329444885253906,528
305,1455475452.29240870475769042969,592
306,1455475452.34228038787841796875,608
307,1455475452.39265751838684082031,576
308,1455475452.44253015518188476562,496
309,1455475452.49221444129943847656,416
310,1455475452.54179644584655761719,376
311,1455475452.592700958251953125,392
312,1455475452.64239978790283203125,448
313,1455475452.6927337646484375,536
314,1455475452.74239039421081542969,600
315,1455475452.79228734970092773438,608
316,1455475452.84286642074584960938,568
317,1455475452.8926181793212890625,488
318,1455475452.94231152534484863281,408
319,1455475452.991947174072265625,376
320,1455475453.0417995452880859375,392
321,1455475453.09254097938537597656,464
322,1455475453.14231562614440917969,544
323,1455475453.19257283210754394531,600
324,1455475453.242401123046875,608
325,1455475453.29281139373779296875,560
326,1455475453.34265351295471191406,480
327,1455475453.39234566688537597656,400
328,1455475453.44201374053955078125,376
329,1455475453.49190402030944824219,400
330,1455475453.54263639450073242188,472
331,1455475453.5926837921142578125,552
332,1455475453.64236354827880859375,608
333,1455475453.69218993186950683594,608
334,1455475453.74183368682861328125,552
335,1455475453.79275536537170410156,464
336,1455475453.84246730804443359375,400
337,1455475453.89216399192810058594,376
338,1455475453.94254541397094726562,408
339,1455475453.99227023124694824219,480
340,1455475454.04212427139282226562,560
341,1455475454.09283900260925292969,608
342,1455475454.14260077476501464844,600
343,1455475454.1927509307861328125,544
344,1455475454.24267458915710449219,456
345,1455475454.29240894317626953125,392
346,1455475454.34232926368713378906,376
347,1455475454.39225935935974121094,408
348,1455475454.44198203086853027344,488
349,1455475454.49278926849365234375,568
350,1455475454.54249143600463867188,608
351,1455475454.5926055908203125,592
352,1455475454.64230275154113769531,536
353,1455475454.69217061996459960938,448
354,1455475454.74183130264282226562,384
355,1455475454.79257321357727050781,376
356,1455475454.84247517585754394531,416
357,1455475454.89177799224853515625,496
358,1455475454.9425792694091796875,576
359,1455475454.99222326278686523438,608
360,1455475455.04197716712951660156,560
361,1455475455.09268426895141601562,608
362,1455475455.14254522323608398438,600
363,1455475455.19185805320739746094,544
364,1455475455.24261164665222167969,456
365,1455475455.29261374473571777344,392
366,1455475455.34233999252319335938,376
367,1455475455.39258432388305664062,408
368,1455475455.44225716590881347656,488
369,1455475455.49235224723815917969,568
370,1455475455.54277157783508300781,608
371,1455475455.59260249137878417969,592
372,1455475455.64232182502746582031,536
373,1455475455.69202303886413574219,448
374,1455475455.74180436134338378906,384
375,1455475455.79255652427673339844,376
376,1455475455.842365264892578125,416
377,1455475455.89243912696838378906,496
378,1455475455.94250893592834472656,576
379,1455475455.99221777915954589844,608
380,1455475456.04194283485412597656,592
381,1455475456.09268307685852050781,520
382,1455475456.14235949516296386719,440
383,1455475456.19280672073364257812,384
384,1455475456.24255847930908203125,376
385,1455475456.29228925704956054688,424
386,1455475456.34197521209716796875,504
387,1455475456.39290452003479003906,584
388,1455475456.4426479339599609375,608
389,1455475456.49245119094848632812,584
390,1455475456.54260993003845214844,512
391,1455475456.59230589866638183594,432
392,1455475456.64221596717834472656,376
393,1455475456.691829681396484375,376
394,1455475456.74260497093200683594,432
395,1455475456.7922954559326171875,520
396,1455475456.84298944473266601562,584
397,1455475456.89280915260314941406,608
398,1455475456.94266653060913085938,576
399,1455475456.99236941337585449219,504
400,1455475457.04247617721557617188,424
401,1455475457.09255170822143554688,376
402,1455475457.1422748565673828125,384
403,1455475457.19221830368041992188,440
404,1455475457.241863250732421875,528
405,1455475457.29271459579467773438,592
406,1455475457.34242415428161621094,608
407,1455475457.39225792884826660156,576
408,1455475457.44256472587585449219,496
409,1455475457.49224114418029785156,416
410,1455475457.54213619232177734375,376
411,1455475457.59285473823547363281,392
412,1455475457.64275836944580078125,456
413,1455475457.6925067901611328125,536
414,1455475457.74230623245239257812,600
415,1455475457.79256153106689453125,608
416,1455475457.84237551689147949219,568
417,1455475457.89207625389099121094,488
418,1455475457.94282174110412597656,408
419,1455475457.99269056320190429688,376
420,1455475458.04239034652709960938,392
421,1455475458.09253358840942382812,464
422,1455475458.14219880104064941406,544
423,1455475458.19192767143249511719,600
424,1455475458.24259495735168457031,608
425,1455475458.292446136474609375,560
426,1455475458.3421573638916015625,480
427,1455475458.39178109169006347656,400
428,1455475458.442684173583984375,376
429,1455475458.4923858642578125,400
430,1455475458.5422687530517578125,472
431,1455475458.59183907508850097656,552
432,1455475458.64265322685241699219,608
433,1455475458.69171595573425292969,608
434,1455475458.74249172210693359375,552
435,1455475458.79222369194030761719,464
436,1455475458.84179782867431640625,400
437,1455475458.89282870292663574219,376
438,1455475458.94255042076110839844,408
439,1455475458.99241733551025390625,480
440,1455475459.04261469841003417969,560
441,1455475459.09250950813293457031,608
442,1455475459.14221239089965820312,600
443,1455475459.19194126129150390625,544
444,1455475459.24262070655822753906,456
445,1455475459.29219555854797363281,392
446,1455475459.34247303009033203125,376
447,1455475459.39220523834228515625,408
448,1455475459.44256234169006347656,488
449,1455475459.49237322807312011719,568
450,1455475459.54225683212280273438,608
451,1455475459.59183549880981445312,600
452,1455475459.64263033866882324219,536
453,1455475459.69235634803771972656,448
454,1455475459.74245309829711914062,384
455,1455475459.79254126548767089844,376
456,1455475459.84225988388061523438,416
457,1455475459.89206147193908691406,496
458,1455475459.94274973869323730469,576
459,1455475459.99257445335388183594,608
460,1455475460.04172778129577636719,592
461,1455475460.09252214431762695312,520
462,1455475460.14222741127014160156,440
463,1455475460.19178533554077148438,384
464,1455475460.24190688133239746094,376
465,1455475460.292606353759765625,424
466,1455475460.34238219261169433594,504
467,1455475460.39178919792175292969,584
468,1455475460.442684173583984375,608
469,1455475460.49238348007202148438,584
470,1455475460.54270958900451660156,512
471,1455475460.59244537353515625,432
472,1455475460.64212799072265625,376
473,1455475460.69278073310852050781,384
474,1455475460.74260497093200683594,432
475,1455475460.792446136474609375,520
476,1455475460.84212541580200195312,584
477,1455475460.89191031455993652344,608
478,1455475460.94270944595336914062,576
479,1455475460.99249505996704101562,504
480,1455475461.04257321357727050781,424
481,1455475461.09225058555603027344,376
482,1455475461.1422023773193359375,384
483,1455475461.19186806678771972656,440
484,1455475461.24264430999755859375,528
485,1455475461.29228949546813964844,592
486,1455475461.34221768379211425781,608
487,1455475461.39184069633483886719,576
488,1455475461.44264292716979980469,496
489,1455475461.49270081520080566406,416
490,1455475461.54239678382873535156,376
491,1455475461.5923328399658203125,384
492,1455475461.64219498634338378906,448
493,1455475461.69233655929565429688,536
494,1455475461.74199962615966796875,600
495,1455475461.79282212257385253906,608
496,1455475461.84254789352416992188,568
497,1455475461.89237356185913085938,488
498,1455475461.94260263442993164062,408
499,1455475461.99235177040100097656,376
500,1455475462.0422534942626953125,392
501,1455475462.09184741973876953125,456
502,1455475462.14262843132019042969,544
503,1455475462.19228100776672363281,600
504,1455475462.24210834503173828125,608
