id, time (s), size (bits)
0,1455475437.57029414176940917969,608
1,1455475437.62046122550964355469,568
2,1455475437.67070794105529785156,488
3,1455475437.720584869384765625,408
4,1455475437.77012419700622558594,376
5,1455475437.81958913803100585938,392
6,1455475437.870372772216796875,464
7,1455475437.91996932029724121094,544
8,1455475437.97042608261108398438,600
9,1455475438.02029752731323242188,608
10,1455475438.07019400596618652344,560
11,1455475438.12000727653503417969,480
12,1455475438.16973471641540527344,400
13,1455475438.22033786773681640625,376
14,1455475438.27005052566528320312,400
15,1455475438.31955409049987792969,472
16,1455475438.37028956413269042969,552
17,1455475438.42000031471252441406,608
18,1455475438.47061181068420410156,600
19,1455475438.52048945426940917969,552
20,1455475438.57005906105041503906,464
21,1455475438.619876861572265625,400
22,1455475438.67059421539306640625,376
23,1455475438.72051501274108886719,408
24,1455475438.77018022537231445312,480
25,1455475438.81982779502868652344,560
26,1455475438.87051892280578613281,608
27,1455475438.92008352279663085938,600
28,1455475438.96985030174255371094,544
29,1455475439.02058768272399902344,456
30,1455475439.07052445411682128906,392
31,1455475439.12018823623657226562,376
32,1455475439.16994333267211914062,408
33,1455475439.21975588798522949219,488
34,1455475439.27054595947265625,568
35,1455475439.32022356986999511719,608
36,1455475439.36982440948486328125,600
37,1455475439.42066335678100585938,528
38,1455475439.47016048431396484375,448
39,1455475439.51991200447082519531,384
40,1455475439.57048392295837402344,376
41,1455475439.62028074264526367188,416
42,1455475439.66990399360656738281,496
43,1455475439.72065854072570800781,576
44,1455475439.77029728889465332031,608
45,1455475439.81986355781555175781,592
46,1455475439.86956763267517089844,528
47,1455475439.9200592041015625,440
48,1455475439.9695987701416015625,384
49,1455475440.02031660079956054688,376
50,1455475440.07025623321533203125,424
51,1455475440.11991190910339355469,504
52,1455475440.17069077491760253906,584
53,1455475440.2203369140625,608
54,1455475440.27018976211547851562,584
55,1455475440.31996822357177734375,512
56,1455475440.37058115005493164062,432
57,1455475440.42033100128173828125,376
58,1455475440.46988582611083984375,376
59,1455475440.52070569992065429688,432
60,1455475440.5702877044677734375,520
61,1455475440.62013697624206542969,584
62,1455475440.66983652114868164062,608
63,1455475440.7204875946044921875,576
64,1455475440.77026224136352539062,504
65,1455475440.8201313018798828125,424
66,1455475440.86994290351867675781,376
67,1455475440.92038011550903320312,384
68,1455475440.97012877464294433594,440
69,1455475441.01984548568725585938,528
70,1455475441.06973576545715332031,592
71,1455475441.12048935890197753906,608
72,1455475441.17027378082275390625,576
73,1455475441.21993398666381835938,496
74,1455475441.27054166793823242188,416
75,1455475441.320270538330078125,376
76,1455475441.36986565589904785156,384
77,1455475441.42071413993835449219,456
78,1455475441.47032237052917480469,536
79,1455475441.5200252532958984375,600
80,1455475441.57054877281188964844,608
81,1455475441.62016224861145019531,568
82,1455475441.66995382308959960938,488
83,1455475441.72056913375854492188,408
84,1455475441.77037572860717773438,376
85,1455475441.81995725631713867188,392
86,1455475441.87077927589416503906,464
87,1455475441.92052483558654785156,544
88,1455475441.97008395195007324219,600
89,1455475442.0198574066162109375,608
90,1455475442.06975340843200683594,560
91,1455475442.12056589126586914062,480
92,1455475442.17016315460205078125,400
93,1455475442.21989417076110839844,376
94,1455475442.27048659324645996094,400
95,1455475442.3202667236328125,472
96,1455475442.36991858482360839844,552
97,1455475442.42066550254821777344,608
98,1455475442.47014498710632324219,608
99,1455475442.51977086067199707031,552
100,1455475442.57048058509826660156,464
101,1455475442.6201419830322265625,400
102,1455475442.67002201080322265625,376
103,1455475442.71959137916564941406,400
104,1455475442.77061748504638671875,480
105,1455475442.82031655311584472656,560
106,1455475442.8701038360595703125,608
107,1455475442.91973733901977539062,600
108,1455475442.97031879425048828125,544
109,1455475443.0202388763427734375,456
110,1455475443.070034027099609375,392
111,1455475443.11990833282470703125,376
112,1455475443.17052412033081054688,408
113,1455475443.22019934654235839844,488
114,1455475443.26977109909057617188,568
115,1455475443.32044291496276855469,608
116,1455475443.37006711959838867188,600
117,1455475443.4195308685302734375,536
118,1455475443.4702587127685546875,448
119,1455475443.51983022689819335938,384
120,1455475443.57063174247741699219,376
121,1455475443.6203403472900390625,416
122,1455475443.67023992538452148438,496
123,1455475443.71991443634033203125,576
124,1455475443.77059102058410644531,608
125,1455475443.82023334503173828125,592
126,1455475443.86993503570556640625,520
127,1455475443.91960906982421875,440
128,1455475443.97019505500793457031,384
129,1455475444.02052187919616699219,376
130,1455475444.07010102272033691406,424
131,1455475444.11976170539855957031,504
132,1455475444.17014074325561523438,584
133,1455475444.21977281570434570312,608
134,1455475444.27041769027709960938,584
135,1455475444.31996583938598632812,512
136,1455475444.3696537017822265625,432
137,1455475444.42021107673645019531,376
138,1455475444.46991610527038574219,376
139,1455475444.51952409744262695312,432
140,1455475444.57021474838256835938,520
141,1455475444.61993122100830078125,584
142,1455475444.67071604728698730469,608
143,1455475444.72037601470947265625,576
144,1455475444.77011322975158691406,504
145,1455475444.81993842124938964844,424
146,1455475444.86982512474060058594,376
147,1455475444.91954851150512695312,384
148,1455475444.970203399658203125,440
149,1455475445.01994729042053222656,528
150,1455475445.07052874565124511719,592
151,1455475445.120265960693359375,608
152,1455475445.1699085235595703125,576
153,1455475445.22049164772033691406,496
154,1455475445.27033066749572753906,416
155,1455475445.31998610496520996094,376
156,1455475445.36962723731994628906,384
157,1455475445.42020869255065917969,448
158,1455475445.46995782852172851562,536
159,1455475445.52060198783874511719,600
160,1455475445.57031655311584472656,608
161,1455475445.62000179290771484375,568
162,1455475445.67064619064331054688,488
163,1455475445.72048354148864746094,408
164,1455475445.77003979682922363281,376
165,1455475445.81965136528015136719,392
166,1455475445.8702869415283203125,464
167,1455475445.92001581192016601562,544
168,1455475445.97060251235961914062,600
169,1455475446.02042651176452636719,528
170,1455475446.07026696205139160156,592
171,1455475446.11981129646301269531,608
172,1455475446.16957831382751464844,576
173,1455475446.22023439407348632812,496
174,1455475446.26998853683471679688,416
175,1455475446.3204669952392578125,376
176,1455475446.3701229095458984375,384
177,1455475446.41972279548645019531,448
178,1455475446.47030162811279296875,536
179,1455475446.51989531517028808594,600
180,1455475446.57045507431030273438,608
181,1455475446.62029552459716796875,568
182,1455475446.670017242431640625,488
183,1455475446.71979522705078125,408
184,1455475446.7704448699951171875,376
185,1455475446.82016515731811523438,392
186,1455475446.86983370780944824219,456
187,1455475446.92067503929138183594,544
188,1455475446.97029137611389160156,600
189,1455475447.01995515823364257812,608
190,1455475447.070056915283203125,560
191,1455475447.11959862709045410156,480
192,1455475447.17041563987731933594,400
193,1455475447.2200717926025390625,376
194,1455475447.26975226402282714844,400
195,1455475447.32036328315734863281,472
196,1455475447.37015438079833984375,552
197,1455475447.41981172561645507812,608
198,1455475447.47038316726684570312,608
199,1455475447.52014946937561035156,552
200,1455475447.56959962844848632812,472
201,1455475447.62032723426818847656,400
202,1455475447.66999983787536621094,376
203,1455475447.72072815895080566406,408
204,1455475447.77036166191101074219,480
205,1455475447.82011818885803222656,560
206,1455475447.86989641189575195312,608
207,1455475447.92058634757995605469,600
208,1455475447.97039341926574707031,544
209,1455475448.02014112472534179688,456
210,1455475448.07012152671813964844,392
211,1455475448.11978030204772949219,376
212,1455475448.17042970657348632812,408
213,1455475448.22002267837524414062,488
214,1455475448.27078962326049804688,568
215,1455475448.32042336463928222656,608
216,1455475448.3700618743896484375,600
217,1455475448.41984033584594726562,536
218,1455475448.47041153907775878906,448
219,1455475448.52014946937561035156,384
220,1455475448.57056474685668945312,376
221,1455475448.62051725387573242188,416
222,1455475448.67018342018127441406,496
223,1455475448.71999096870422363281,576
224,1455475448.76956892013549804688,608
225,1455475448.82014393806457519531,592
226,1455475448.86995291709899902344,520
227,1455475448.92037749290466308594,440
228,1455475448.97010350227355957031,384
229,1455475449.01971149444580078125,376
230,1455475449.07075929641723632812,424
231,1455475449.1204013824462890625,504
232,1455475449.17012858390808105469,584
233,1455475449.21976017951965332031,608
234,1455475449.27040624618530273438,584
235,1455475449.320171356201171875,512
236,1455475449.36982393264770507812,432
237,1455475449.42057466506958007812,376
238,1455475449.47003817558288574219,376
239,1455475449.5198192596435546875,432
240,1455475449.57050609588623046875,520
241,1455475449.62036108970642089844,584
242,1455475449.67001461982727050781,608
243,1455475449.72058153152465820312,576
244,1455475449.77035880088806152344,504
245,1455475449.81990885734558105469,424
246,1455475449.86960530281066894531,376
247,1455475449.9200649261474609375,384
248,1455475449.96984982490539550781,440
249,1455475450.02030038833618164062,528
250,1455475450.07022595405578613281,592
251,1455475450.11992669105529785156,608
252,1455475450.17053818702697753906,576
253,1455475450.22026610374450683594,496
254,1455475450.26990580558776855469,416
255,1455475450.32050871849060058594,376
256,1455475450.37015795707702636719,384
257,1455475450.41997408866882324219,448
258,1455475450.47062993049621582031,536
259,1455475450.52035212516784667969,600
260,1455475450.56994485855102539062,608
261,1455475450.62054800987243652344,568
262,1455475450.67037987709045410156,488
263,1455475450.72004818916320800781,408
264,1455475450.76992845535278320312,376
265,1455475450.82051229476928710938,392
266,1455475450.87034153938293457031,464
267,1455475450.91996550559997558594,544
268,1455475450.97065448760986328125,600
269,1455475451.02040958404541015625,608
270,1455475451.07025575637817382812,560
271,1455475451.12006068229675292969,480
272,1455475451.16960191726684570312,400
273,1455475451.22048830986022949219,376
274,1455475451.27034282684326171875,400
275,1455475451.32004261016845703125,472
276,1455475451.36958622932434082031,552
277,1455475451.4202060699462890625,608
278,1455475451.46985960006713867188,608
279,1455475451.5204792022705078125,552
280,1455475451.57028913497924804688,464
281,1455475451.61993527412414550781,400
282,1455475451.66975736618041992188,376
283,1455475451.72035360336303710938,408
284,1455475451.77013397216796875,480
285,1455475451.81963348388671875,560
286,1455475451.87046337127685546875,608
287,1455475451.92011499404907226562,600
288,1455475451.96978759765625,544
289,1455475452.02073001861572265625,456
290,1455475452.07054638862609863281,392
291,1455475452.12029600143432617188,376
292,1455475452.16990423202514648438,408
293,1455475452.22058844566345214844,488
294,1455475452.270236968994140625,568
295,1455475452.31976938247680664062,608
296,1455475452.37049221992492675781,592
297,1455475452.42015886306762695312,536
298,1455475452.46991014480590820312,448
299,1455475452.52055478096008300781,384
300,1455475452.57035946846008300781,376
301,1455475452.61997127532958984375,416
302,1455475452.67077350616455078125,496
303,1455475452.72041726112365722656,576
304,1455475452.77006006240844726562,608
305,1455475452.81958103179931640625,592
306,1455475452.87028169631958007812,520
307,1455475452.92012095451354980469,440
308,1455475452.96977758407592773438,384
309,1455475453.02054166793823242188,376
310,1455475453.07009434700012207031,424
311,1455475453.12076687812805175781,512
312,1455475453.17038774490356445312,584
313,1455475453.22006058692932128906,608
314,1455475453.26956915855407714844,584
315,1455475453.32013535499572753906,512
316,1455475453.37000513076782226562,432
317,1455475453.42059111595153808594,376
318,1455475453.47026467323303222656,376
319,1455475453.519840240478515625,432
320,1455475453.57056307792663574219,520
321,1455475453.62028169631958007812,584
322,1455475453.67002558708190917969,608
323,1455475453.71962261199951171875,576
324,1455475453.77021527290344238281,504
325,1455475453.82005214691162109375,424
326,1455475453.86957573890686035156,376
327,1455475453.92016720771789550781,384
328,1455475453.96981072425842285156,440
329,1455475454.02058005332946777344,528
330,1455475454.07019186019897460938,592
331,1455475454.11989641189575195312,608
332,1455475454.17035555839538574219,576
333,1455475454.21983766555786132812,496
334,1455475454.26957941055297851562,416
335,1455475454.32010602951049804688,376
336,1455475454.36987566947937011719,384
337,1455475454.4202861785888671875,448
338,1455475454.47012567520141601562,536
339,1455475454.51961994171142578125,600
340,1455475454.57035231590270996094,608
341,1455475454.62007570266723632812,568
342,1455475454.66964006423950195312,488
343,1455475454.72044324874877929688,408
344,1455475454.77019667625427246094,376
345,1455475454.81991839408874511719,392
346,1455475454.87053227424621582031,464
347,1455475454.92023420333862304688,544
348,1455475454.96984648704528808594,600
349,1455475455.02076673507690429688,528
350,1455475455.07059907913208007812,592
351,1455475455.12022709846496582031,608
352,1455475455.17002105712890625,576
353,1455475455.22055983543395996094,496
354,1455475455.27033209800720214844,416
355,1455475455.31990218162536621094,376
356,1455475455.37072014808654785156,392
357,1455475455.42051529884338378906,456
358,1455475455.47022557258605957031,536
359,1455475455.5198879241943359375,600
360,1455475455.57052183151245117188,608
361,1455475455.62030959129333496094,568
362,1455475455.66991925239562988281,488
363,1455475455.72055006027221679688,408
364,1455475455.77018952369689941406,376
365,1455475455.81974887847900390625,392
366,1455475455.87037301063537597656,464
367,1455475455.92011666297912597656,544
368,1455475455.96974849700927734375,600
369,1455475456.02049374580383300781,608
370,1455475456.07042646408081054688,560
371,1455475456.1200847625732421875,480
372,1455475456.16990971565246582031,400
373,1455475456.220493316650390625,376
374,1455475456.27037119865417480469,400
375,1455475456.31993389129638671875,472
376,1455475456.37055301666259765625,552
377,1455475456.42015385627746582031,608
378,1455475456.46980023384094238281,608
379,1455475456.52062630653381347656,552
380,1455475456.57021474838256835938,464
381,1455475456.61994147300720214844,400
382,1455475456.67062091827392578125,376
383,1455475456.72051215171813964844,408
384,1455475456.77021694183349609375,480
385,1455475456.81976270675659179688,560
386,1455475456.87046027183532714844,608
387,1455475456.92008519172668457031,600
388,1455475456.96987462043762207031,544
389,1455475457.02067852020263671875,456
390,1455475457.06955981254577636719,392
391,1455475457.12028837203979492188,376
392,1455475457.17014646530151367188,408
393,1455475457.21975469589233398438,488
394,1455475457.27058553695678710938,568
395,1455475457.32021355628967285156,608
396,1455475457.36987757682800292969,600
397,1455475457.42063951492309570312,528
398,1455475457.47019124031066894531,448
399,1455475457.51997232437133789062,384
400,1455475457.5695705413818359375,376
401,1455475457.62045764923095703125,416
402,1455475457.67016077041625976562,496
403,1455475457.71992611885070800781,576
404,1455475457.76953411102294921875,608
405,1455475457.82014012336730957031,592
406,1455475457.86997365951538085938,520
407,1455475457.92038822174072265625,440
408,1455475457.97015500068664550781,384
409,1455475458.01984548568725585938,376
410,1455475458.06977009773254394531,424
411,1455475458.12039160728454589844,504
412,1455475458.17010545730590820312,584
413,1455475458.2197513580322265625,608
414,1455475458.27038455009460449219,584
415,1455475458.32009911537170410156,512
416,1455475458.36960673332214355469,432
417,1455475458.42030262947082519531,376
418,1455475458.46994042396545410156,376
419,1455475458.52070212364196777344,432
420,1455475458.57030057907104492188,520
421,1455475458.62004709243774414062,584
422,1455475458.66978025436401367188,608
423,1455475458.72044730186462402344,576
424,1455475458.77024555206298828125,504
425,1455475458.81969904899597167969,424
426,1455475458.87053966522216796875,376
427,1455475458.92015194892883300781,384
428,1455475458.96991252899169921875,440
429,1455475459.02063679695129394531,528
430,1455475459.07008528709411621094,592
431,1455475459.11978459358215332031,608
432,1455475459.17032551765441894531,576
433,1455475459.2199420928955078125,496
434,1455475459.27055573463439941406,416
435,1455475459.320369720458984375,376
436,1455475459.36998105049133300781,384
437,1455475459.42072010040283203125,456
438,1455475459.47036647796630859375,536
439,1455475459.5200290679931640625,600
440,1455475459.57057309150695800781,608
441,1455475459.62020802497863769531,568
442,1455475459.66995453834533691406,488
443,1455475459.71955633163452148438,408
444,1455475459.77036309242248535156,376
445,1455475459.81993269920349121094,392
446,1455475459.87068963050842285156,464
447,1455475459.92027235031127929688,544
448,1455475459.96999335289001464844,600
449,1455475460.01966595649719238281,608
450,1455475460.07050490379333496094,560
451,1455475460.1202983856201171875,480
452,1455475460.16990780830383300781,400
453,1455475460.21965169906616210938,376
454,1455475460.27024412155151367188,400
455,1455475460.31982684135437011719,472
456,1455475460.37055110931396484375,552
457,1455475460.420383453369140625,608
458,1455475460.46998953819274902344,608
459,1455475460.52056670188903808594,552
460,1455475460.57041168212890625,464
461,1455475460.62003326416015625,400
462,1455475460.66981172561645507812,376
463,1455475460.72045493125915527344,408
464,1455475460.77026534080505371094,480
465,1455475460.81971073150634765625,560
466,1455475460.87045383453369140625,608
467,1455475460.92007756233215332031,600
468,1455475460.96963095664978027344,544
469,1455475461.02063751220703125,456
470,1455475461.070446014404296875,392
471,1455475461.12027859687805175781,376
472,1455475461.16987276077270507812,408
473,1455475461.22055196762084960938,488
474,1455475461.270191192626953125,568
475,1455475461.3207035064697265625,608
476,1455475461.37031149864196777344,600
477,1455475461.41988015174865722656,536
478,1455475461.46963715553283691406,448
479,1455475461.52023720741271972656,384
480,1455475461.5699310302734375,376
481,1455475461.62050414085388183594,416
482,1455475461.67028570175170898438,496
483,1455475461.71990728378295898438,576
484,1455475461.77064275741577148438,608
485,1455475461.8202362060546875,592
486,1455475461.86989355087280273438,520
487,1455475461.91980314254760742188,440
488,1455475461.97047495841979980469,384
489,1455475462.02021503448486328125,376
490,1455475462.06969594955444335938,424
491,1455475462.12043905258178710938,504
492,1455475462.17005705833435058594,584
493,1455475462.2207736968994140625,608
494,1455475462.27043747901916503906,584
495,1455475462.31998801231384277344,512
496,1455475462.36956000328063964844,432
497,1455475462.42010450363159179688,376
498,1455475462.46984457969665527344,376
499,1455475462.52044177055358886719,432
500,1455475462.57011914253234863281,520
501,1455475462.61961126327514648438,584
502,1455475462.67037820816040039062,608
503,1455475462.72003221511840820312,576
504,1455475462.76982426643371582031,504
