id, time (s), size (bits)
0,1455475436.91347336769104003906,536
1,1455475436.96365189552307128906,600
2,1455475437.01379561424255371094,512
3,1455475437.06322407722473144531,584
4,1455475437.11379194259643554688,608
5,1455475437.163814544677734375,584
6,1455475437.21381783485412597656,504
7,1455475437.26362061500549316406,424
8,1455475437.31344366073608398438,376
9,1455475437.36353611946105957031,384
10,1455475437.41343450546264648438,440
11,1455475437.4627780914306640625,520
12,1455475437.51351642608642578125,592
13,1455475437.56345438957214355469,608
14,1455475437.61321544647216796875,576
15,1455475437.664691925048828125,496
16,1455475437.71345663070678710938,416
17,1455475437.76335310935974121094,376
18,1455475437.81322598457336425781,384
19,1455475437.86312961578369140625,448
20,1455475437.91384220123291015625,536
21,1455475437.96344518661499023438,600
22,1455475438.01344180107116699219,608
23,1455475438.06331038475036621094,568
24,1455475438.1131763458251953125,488
25,1455475438.16381144523620605469,408
26,1455475438.21358847618103027344,376
27,1455475438.26321291923522949219,392
28,1455475438.31393480300903320312,456
29,1455475438.36355519294738769531,544
30,1455475438.41314721107482910156,600
31,1455475438.46299791336059570312,608
32,1455475438.51361846923828125,560
33,1455475438.56347823143005371094,480
34,1455475438.61310315132141113281,408
35,1455475438.66395306587219238281,376
36,1455475438.71374011039733886719,400
37,1455475438.76340603828430175781,464
38,1455475438.81312012672424316406,552
39,1455475438.8638362884521484375,608
40,1455475438.91378355026245117188,608
41,1455475438.96339178085327148438,552
42,1455475439.01334786415100097656,472
43,1455475439.0632114410400390625,400
44,1455475439.11295676231384277344,376
45,1455475439.16364789009094238281,400
46,1455475439.21336436271667480469,480
47,1455475439.26304221153259277344,560
48,1455475439.31357932090759277344,608
49,1455475439.36344814300537109375,600
50,1455475439.41303348541259765625,544
51,1455475439.46384501457214355469,456
52,1455475439.51361346244812011719,392
53,1455475439.56339383125305175781,376
54,1455475439.61305189132690429688,408
55,1455475439.66375446319580078125,488
56,1455475439.7133808135986328125,568
57,1455475439.76299118995666503906,608
58,1455475439.81390643119812011719,600
59,1455475439.86357998847961425781,536
60,1455475439.91343283653259277344,448
61,1455475439.96301722526550292969,392
62,1455475440.01391577720642089844,376
63,1455475440.06378912925720214844,416
64,1455475440.11354756355285644531,496
65,1455475440.163516998291015625,576
66,1455475440.21316480636596679688,608
67,1455475440.26306509971618652344,592
68,1455475440.31371617317199707031,528
69,1455475440.36348700523376464844,440
70,1455475440.41338586807250976562,384
71,1455475440.46298122406005859375,376
72,1455475440.51365709304809570312,424
73,1455475440.56347489356994628906,504
74,1455475440.61312127113342285156,576
75,1455475440.66375827789306640625,608
76,1455475440.71350765228271484375,584
77,1455475440.76315927505493164062,520
78,1455475440.81279468536376953125,432
79,1455475440.86344885826110839844,376
80,1455475440.91318416595458984375,376
81,1455475440.96284437179565429688,432
82,1455475441.01384639739990234375,512
83,1455475441.06384491920471191406,584
84,1455475441.11346554756164550781,608
85,1455475441.16338562965393066406,584
86,1455475441.21295833587646484375,504
87,1455475441.26370787620544433594,424
88,1455475441.313312530517578125,376
89,1455475441.36393785476684570312,384
90,1455475441.41368389129638671875,440
91,1455475441.46353793144226074219,520
92,1455475441.51325869560241699219,592
93,1455475441.5627841949462890625,608
94,1455475441.6136035919189453125,576
95,1455475441.66322851181030273438,496
96,1455475441.7131328582763671875,416
97,1455475441.76371693611145019531,376
98,1455475441.8136043548583984375,384
99,1455475441.86330747604370117188,448
100,1455475441.91306614875793457031,536
101,1455475441.9638843536376953125,600
102,1455475442.01393270492553710938,608
103,1455475442.06286358833312988281,568
104,1455475442.1135101318359375,488
105,1455475442.16335129737854003906,408
106,1455475442.21278214454650878906,376
107,1455475442.26362490653991699219,392
108,1455475442.3132610321044921875,456
109,1455475442.36388373374938964844,544
110,1455475442.41352534294128417969,600
111,1455475442.46310377120971679688,608
112,1455475442.51277422904968261719,560
113,1455475442.56337380409240722656,480
114,1455475442.61310362815856933594,408
115,1455475442.66371941566467285156,376
116,1455475442.71361207962036132812,400
117,1455475442.76318240165710449219,464
118,1455475442.81400156021118164062,552
119,1455475442.86375284194946289062,608
120,1455475442.91339612007141113281,608
121,1455475442.96311616897583007812,552
122,1455475443.01390004158020019531,472
123,1455475443.06280255317687988281,400
124,1455475443.11342501640319824219,376
125,1455475443.16333150863647460938,400
126,1455475443.21292996406555175781,480
127,1455475443.26364064216613769531,560
128,1455475443.31329345703125,608
129,1455475443.36338829994201660156,600
130,1455475443.41313672065734863281,544
131,1455475443.46372556686401367188,456
132,1455475443.51348114013671875,392
133,1455475443.56314897537231445312,376
134,1455475443.61302351951599121094,408
135,1455475443.66372060775756835938,488
136,1455475443.7134685516357421875,568
137,1455475443.76311659812927246094,608
138,1455475443.81378388404846191406,600
139,1455475443.8636035919189453125,536
140,1455475443.91327238082885742188,448
141,1455475443.96316266059875488281,384
142,1455475444.01380801200866699219,376
143,1455475444.06358122825622558594,416
144,1455475444.1131992340087890625,496
145,1455475444.16391992568969726562,576
146,1455475444.21355438232421875,608
147,1455475444.26317811012268066406,592
148,1455475444.31282520294189453125,528
149,1455475444.36332559585571289062,440
150,1455475444.41315960884094238281,384
151,1455475444.46381092071533203125,376
152,1455475444.51361775398254394531,424
153,1455475444.56326055526733398438,504
154,1455475444.6138820648193359375,584
155,1455475444.66351938247680664062,608
156,1455475444.71308922767639160156,584
157,1455475444.762767791748046875,520
158,1455475444.81345629692077636719,432
159,1455475444.86332058906555175781,376
160,1455475444.91347646713256835938,376
161,1455475444.96319818496704101562,432
162,1455475445.01275849342346191406,512
163,1455475445.06346940994262695312,584
164,1455475445.11310362815856933594,608
165,1455475445.1637516021728515625,584
166,1455475445.21352267265319824219,504
167,1455475445.26315617561340332031,424
168,1455475445.31314539909362792969,376
169,1455475445.36377096176147460938,384
170,1455475445.41353964805603027344,440
171,1455475445.46311306953430175781,520
172,1455475445.51383924484252929688,592
173,1455475445.56349849700927734375,608
174,1455475445.61310029029846191406,576
175,1455475445.66275310516357421875,496
176,1455475445.71333360671997070312,416
177,1455475445.763172149658203125,376
178,1455475445.8138561248779296875,384
179,1455475445.86365914344787597656,448
180,1455475445.91341495513916015625,536
181,1455475445.96309757232666015625,592
182,1455475446.01386857032775878906,512
183,1455475446.06377887725830078125,584
184,1455475446.1136989593505859375,608
185,1455475446.16341686248779296875,584
186,1455475446.21316599845886230469,504
187,1455475446.263774871826171875,424
188,1455475446.31351709365844726562,376
189,1455475446.363140106201171875,384
190,1455475446.41386008262634277344,440
191,1455475446.46346402168273925781,520
192,1455475446.51309347152709960938,592
193,1455475446.56297826766967773438,608
194,1455475446.61355090141296386719,576
195,1455475446.66332197189331054688,496
196,1455475446.71277213096618652344,416
197,1455475446.76354551315307617188,376
198,1455475446.8132305145263671875,384
199,1455475446.86303496360778808594,448
200,1455475446.91374969482421875,536
201,1455475446.96334338188171386719,600
202,1455475447.01343703269958496094,608
203,1455475447.06336259841918945312,568
204,1455475447.113231658935546875,488
205,1455475447.16297698020935058594,408
206,1455475447.21376276016235351562,376
207,1455475447.2634410858154296875,392
208,1455475447.31317496299743652344,456
209,1455475447.36286401748657226562,544
210,1455475447.41356968879699707031,600
211,1455475447.46344137191772460938,608
212,1455475447.51308894157409667969,560
213,1455475447.56277942657470703125,480
214,1455475447.61338019371032714844,408
215,1455475447.66311502456665039062,376
216,1455475447.71373629570007324219,400
217,1455475447.76353907585144042969,464
218,1455475447.81328439712524414062,552
219,1455475447.86313629150390625,608
220,1455475447.91302919387817382812,608
221,1455475447.96366858482360839844,552
222,1455475448.01361584663391113281,472
223,1455475448.06344485282897949219,400
224,1455475448.11324930191040039062,376
225,1455475448.16281032562255859375,400
226,1455475448.21358919143676757812,480
227,1455475448.26328611373901367188,560
228,1455475448.31279683113098144531,608
229,1455475448.36355280876159667969,600
230,1455475448.41312241554260253906,544
231,1455475448.46275639533996582031,464
232,1455475448.51340031623840332031,392
233,1455475448.56325411796569824219,376
234,1455475448.61283087730407714844,408
235,1455475448.66370987892150878906,488
236,1455475448.7134914398193359375,568
237,1455475448.76316952705383300781,608
238,1455475448.81285381317138671875,600
239,1455475448.86356949806213378906,536
240,1455475448.91335296630859375,448
241,1455475448.96281886100769042969,392
242,1455475449.01377415657043457031,376
243,1455475449.06362414360046386719,416
244,1455475449.11344790458679199219,496
245,1455475449.16344380378723144531,576
246,1455475449.21298813819885253906,608
247,1455475449.26373147964477539062,592
248,1455475449.31332254409790039062,528
249,1455475449.36308765411376953125,440
250,1455475449.413726806640625,384
251,1455475449.46344447135925292969,376
252,1455475449.51312947273254394531,424
253,1455475449.56404542922973632812,504
254,1455475449.61279797554016113281,576
255,1455475449.66340422630310058594,608
256,1455475449.71314167976379394531,584
257,1455475449.76363635063171386719,512
258,1455475449.81355118751525878906,432
259,1455475449.86328625679016113281,376
260,1455475449.91301846504211425781,376
261,1455475449.96366167068481445312,432
262,1455475450.01363420486450195312,512
263,1455475450.06351709365844726562,584
264,1455475450.11317157745361328125,608
265,1455475450.16299700736999511719,584
266,1455475450.21371793746948242188,504
267,1455475450.26347684860229492188,424
268,1455475450.31310176849365234375,376
269,1455475450.36392521858215332031,384
270,1455475450.41362047195434570312,440
271,1455475450.46329951286315917969,520
272,1455475450.51308846473693847656,592
273,1455475450.56376743316650390625,608
274,1455475450.61352825164794921875,576
275,1455475450.66312503814697265625,496
276,1455475450.71276569366455078125,416
277,1455475450.76348018646240234375,376
278,1455475450.81334638595581054688,384
279,1455475450.86307692527770996094,448
280,1455475450.91384577751159667969,536
281,1455475450.9635066986083984375,600
282,1455475451.01329946517944335938,608
283,1455475451.06330370903015136719,568
284,1455475451.11302471160888671875,488
285,1455475451.16380929946899414062,408
286,1455475451.2134227752685546875,376
287,1455475451.26334714889526367188,392
288,1455475451.31300520896911621094,456
289,1455475451.36362457275390625,544
290,1455475451.41327142715454101562,600
291,1455475451.4627780914306640625,608
292,1455475451.51352906227111816406,560
293,1455475451.5631694793701171875,480
294,1455475451.6128597259521484375,408
295,1455475451.66347646713256835938,376
296,1455475451.71319985389709472656,400
297,1455475451.7627849578857421875,464
298,1455475451.81356978416442871094,552
299,1455475451.86328291893005371094,608
300,1455475451.91279697418212890625,608
301,1455475451.96357250213623046875,552
302,1455475452.01338243484497070312,472
303,1455475452.06341719627380371094,400
304,1455475452.11307597160339355469,376
305,1455475452.16393065452575683594,400
306,1455475452.21366524696350097656,480
307,1455475452.26346158981323242188,560
308,1455475452.31316661834716796875,608
309,1455475452.36281847953796386719,600
310,1455475452.41367292404174804688,544
311,1455475452.4632778167724609375,464
312,1455475452.5131168365478515625,392
313,1455475452.56377172470092773438,376
314,1455475452.61346387863159179688,408
315,1455475452.66308760643005371094,488
316,1455475452.713771820068359375,568
317,1455475452.76344275474548339844,608
318,1455475452.81309413909912109375,600
319,1455475452.86285638809204101562,536
320,1455475452.91345834732055664062,448
321,1455475452.96337628364562988281,384
322,1455475453.01298952102661132812,376
323,1455475453.06376719474792480469,416
324,1455475453.11334443092346191406,496
325,1455475453.16307687759399414062,576
326,1455475453.21368122100830078125,608
327,1455475453.26330924034118652344,592
328,1455475453.31304049491882324219,528
329,1455475453.36361455917358398438,440
330,1455475453.41343569755554199219,384
331,1455475453.46294689178466796875,376
332,1455475453.51371932029724121094,424
333,1455475453.56338024139404296875,504
334,1455475453.61303544044494628906,576
335,1455475453.66372752189636230469,608
336,1455475453.71322488784790039062,584
337,1455475453.76308488845825195312,520
338,1455475453.81377100944519042969,432
339,1455475453.86365056037902832031,376
340,1455475453.91344404220581054688,376
341,1455475453.96313691139221191406,432
342,1455475454.01376795768737792969,512
343,1455475454.0635223388671875,584
344,1455475454.11315298080444335938,608
345,1455475454.16379404067993164062,584
346,1455475454.21364593505859375,504
347,1455475454.26327371597290039062,424
348,1455475454.31298327445983886719,376
349,1455475454.36357331275939941406,384
350,1455475454.41327691078186035156,440
351,1455475454.46280145645141601562,520
352,1455475454.51355767250061035156,592
353,1455475454.56321239471435546875,608
354,1455475454.61371302604675292969,576
355,1455475454.66364383697509765625,496
356,1455475454.71324038505554199219,416
357,1455475454.76302123069763183594,376
358,1455475454.81355810165405273438,384
359,1455475454.86331820487976074219,448
360,1455475454.91283106803894042969,528
361,1455475454.96358227729797363281,600
362,1455475455.01342606544494628906,512
363,1455475455.06326746940612792969,584
364,1455475455.11317682266235351562,608
365,1455475455.16275525093078613281,584
366,1455475455.21348166465759277344,504
367,1455475455.26315927505493164062,424
368,1455475455.31390357017517089844,376
369,1455475455.36347985267639160156,384
370,1455475455.41315364837646484375,440
371,1455475455.46376514434814453125,528
372,1455475455.51339197158813476562,592
373,1455475455.56333374977111816406,608
374,1455475455.6130924224853515625,576
375,1455475455.6638336181640625,496
376,1455475455.7134914398193359375,416
377,1455475455.76326012611389160156,376
378,1455475455.81280565261840820312,384
379,1455475455.86374783515930175781,448
380,1455475455.91352558135986328125,536
381,1455475455.96316552162170410156,600
382,1455475456.01306104660034179688,608
383,1455475456.06279158592224121094,568
384,1455475456.11358523368835449219,488
385,1455475456.16319680213928222656,408
386,1455475456.21390318870544433594,376
387,1455475456.2635040283203125,392
388,1455475456.31332182884216308594,456
389,1455475456.36304903030395507812,544
390,1455475456.41381549835205078125,600
391,1455475456.46361136436462402344,608
392,1455475456.51325702667236328125,560
393,1455475456.563030242919921875,480
394,1455475456.61361074447631835938,408
395,1455475456.66338872909545898438,376
396,1455475456.71295404434204101562,400
397,1455475456.76374363899230957031,472
398,1455475456.81347823143005371094,552
399,1455475456.86309885978698730469,608
400,1455475456.91386246681213378906,608
401,1455475456.9634838104248046875,552
402,1455475457.01335859298706054688,472
403,1455475457.06320714950561523438,400
404,1455475457.11397051811218261719,376
405,1455475457.16373848915100097656,400
406,1455475457.21348428726196289062,480
407,1455475457.26320981979370117188,560
408,1455475457.31380176544189453125,608
409,1455475457.36352753639221191406,600
410,1455475457.41310858726501464844,544
411,1455475457.46282434463500976562,464
412,1455475457.51354360580444335938,392
413,1455475457.56337857246398925781,376
414,1455475457.61305880546569824219,408
415,1455475457.66386961936950683594,488
416,1455475457.71352219581604003906,568
417,1455475457.76314258575439453125,608
418,1455475457.81281781196594238281,600
419,1455475457.86351609230041503906,536
420,1455475457.91323375701904296875,448
421,1455475457.96277952194213867188,392
422,1455475458.01389241218566894531,376
423,1455475458.06380605697631835938,416
424,1455475458.11350035667419433594,496
425,1455475458.16321301460266113281,576
426,1455475458.21376538276672363281,608
427,1455475458.26349306106567382812,592
428,1455475458.31309199333190917969,528
429,1455475458.36381888389587402344,440
430,1455475458.41342997550964355469,384
431,1455475458.46317720413208007812,376
432,1455475458.51383543014526367188,424
433,1455475458.56356644630432128906,504
434,1455475458.61318683624267578125,576
435,1455475458.66382360458374023438,608
436,1455475458.71354961395263671875,584
437,1455475458.7631702423095703125,520
438,1455475458.81282472610473632812,432
439,1455475458.86360502243041992188,376
440,1455475458.91361331939697265625,376
441,1455475458.963214874267578125,432
442,1455475459.01317811012268066406,512
443,1455475459.06307578086853027344,584
444,1455475459.11371970176696777344,608
445,1455475459.16353845596313476562,584
446,1455475459.21311736106872558594,504
447,1455475459.26277184486389160156,424
448,1455475459.31329631805419921875,376
449,1455475459.363079071044921875,384
450,1455475459.41377162933349609375,440
451,1455475459.46347665786743164062,520
452,1455475459.51312398910522460938,592
453,1455475459.56375741958618164062,608
454,1455475459.61349129676818847656,576
455,1455475459.66311407089233398438,496
456,1455475459.71297931671142578125,416
457,1455475459.76358866691589355469,376
458,1455475459.81376552581787109375,384
459,1455475459.86337327957153320312,448
460,1455475459.91311764717102050781,536
461,1455475459.96376705169677734375,600
462,1455475460.01358675956726074219,608
463,1455475460.06356596946716308594,568
464,1455475460.11317992210388183594,488
465,1455475460.16303920745849609375,408
466,1455475460.21364712715148925781,376
467,1455475460.26341009140014648438,392
468,1455475460.31304454803466796875,456
469,1455475460.3637485504150390625,544
470,1455475460.41339135169982910156,600
471,1455475460.46289157867431640625,608
472,1455475460.51370668411254882812,560
473,1455475460.56333470344543457031,480
474,1455475460.61316013336181640625,408
475,1455475460.66380929946899414062,376
476,1455475460.71351027488708496094,400
477,1455475460.76315236091613769531,464
478,1455475460.81396746635437011719,552
479,1455475460.86363005638122558594,608
480,1455475460.91314172744750976562,608
481,1455475460.96279549598693847656,552
482,1455475461.01357698440551757812,472
483,1455475461.06361103057861328125,400
484,1455475461.11329317092895507812,376
485,1455475461.16299748420715332031,400
486,1455475461.21366143226623535156,480
487,1455475461.26342320442199707031,560
488,1455475461.31307387351989746094,608
489,1455475461.363780975341796875,600
490,1455475461.41367363929748535156,544
491,1455475461.46323537826538085938,464
492,1455475461.51308417320251464844,392
493,1455475461.56374955177307128906,376
494,1455475461.61342334747314453125,408
495,1455475461.66302824020385742188,488
496,1455475461.71362757682800292969,568
497,1455475461.763286590576171875,608
498,1455475461.81300687789916992188,600
499,1455475461.862903594970703125,536
500,1455475461.913608551025390625,448
501,1455475461.96337366104125976562,384
502,1455475462.01297903060913085938,376
503,1455475462.06365680694580078125,416
504,1455475462.11334109306335449219,496
