id, time (s), size (bits)
0,1455475437.21151018142700195312,512
1,1455475437.26060366630554199219,432
2,1455475437.3107662200927734375,376
3,1455475437.36120080947875976562,384
4,1455475437.41071605682373046875,440
5,1455475437.46151304244995117188,520
6,1455475437.51272177696228027344,592
7,1455475437.56148791313171386719,608
8,1455475437.6113185882568359375,576
9,1455475437.66112375259399414062,504
10,1455475437.71091556549072265625,424
11,1455475437.760578155517578125,376
12,1455475437.812793731689453125,384
13,1455475437.86088585853576660156,448
14,1455475437.91052031517028808594,528
15,1455475437.96135306358337402344,592
16,1455475438.01138997077941894531,608
17,1455475438.0614776611328125,568
18,1455475438.11124253273010253906,488
19,1455475438.16107583045959472656,416
20,1455475438.21084761619567871094,376
21,1455475438.26156330108642578125,392
22,1455475438.31148934364318847656,456
23,1455475438.36118292808532714844,536
24,1455475438.41107940673828125,600
25,1455475438.46073627471923828125,608
26,1455475438.51159381866455078125,560
27,1455475438.56131792068481445312,480
28,1455475438.61114406585693359375,408
29,1455475438.660877227783203125,376
30,1455475438.711566925048828125,392
31,1455475438.76145315170288085938,464
32,1455475438.8111248016357421875,544
33,1455475438.86112809181213378906,600
34,1455475438.91082024574279785156,608
35,1455475438.96168947219848632812,552
36,1455475439.01176023483276367188,472
37,1455475439.06177306175231933594,400
38,1455475439.11152052879333496094,376
39,1455475439.16127634048461914062,400
40,1455475439.21120858192443847656,472
41,1455475439.26093983650207519531,552
42,1455475439.31080269813537597656,608
43,1455475439.36150288581848144531,600
44,1455475439.411418914794921875,544
45,1455475439.46117377281188964844,464
46,1455475439.51102042198181152344,392
47,1455475439.56155800819396972656,376
48,1455475439.61125302314758300781,408
49,1455475439.6611785888671875,480
50,1455475439.71087408065795898438,560
51,1455475439.76074886322021484375,608
52,1455475439.81142926216125488281,600
53,1455475439.86132860183715820312,536
54,1455475439.91101980209350585938,456
55,1455475439.96076130867004394531,392
56,1455475440.01174187660217285156,376
57,1455475440.06153750419616699219,416
58,1455475440.11148905754089355469,496
59,1455475440.16119837760925292969,568
60,1455475440.21105527877807617188,608
61,1455475440.26078724861145019531,592
62,1455475440.31171679496765136719,528
63,1455475440.36141133308410644531,448
64,1455475440.41132020950317382812,384
65,1455475440.46133899688720703125,376
66,1455475440.51104378700256347656,424
67,1455475440.56083202362060546875,504
68,1455475440.61153197288513183594,576
69,1455475440.66141819953918457031,608
70,1455475440.71113896369934082031,592
71,1455475440.76105904579162597656,520
72,1455475440.81052327156066894531,440
73,1455475440.86142897605895996094,384
74,1455475440.911136627197265625,376
75,1455475440.96084380149841308594,432
76,1455475441.01082563400268554688,512
77,1455475441.06066942214965820312,584
78,1455475441.11151194572448730469,608
79,1455475441.16123127937316894531,584
80,1455475441.21105742454528808594,512
81,1455475441.26075029373168945312,432
82,1455475441.31144666671752929688,376
83,1455475441.36116456985473632812,384
84,1455475441.41084003448486328125,440
85,1455475441.46064090728759765625,520
86,1455475441.51134037971496582031,592
87,1455475441.56116843223571777344,608
88,1455475441.61092829704284667969,576
89,1455475441.66071629524230957031,504
90,1455475441.71146297454833984375,424
91,1455475441.76135325431823730469,376
92,1455475441.81108212471008300781,384
93,1455475441.86086750030517578125,448
94,1455475441.91079878807067871094,528
95,1455475441.96134471893310546875,592
96,1455475442.01146674156188964844,608
97,1455475442.06131267547607421875,568
98,1455475442.11121821403503417969,488
99,1455475442.16091609001159667969,416
100,1455475442.21084642410278320312,376
101,1455475442.26053857803344726562,392
102,1455475442.31125926971435546875,456
103,1455475442.36112999916076660156,536
104,1455475442.41082239151000976562,600
105,1455475442.46065187454223632812,608
106,1455475442.51138067245483398438,560
107,1455475442.56148886680603027344,480
108,1455475442.61123871803283691406,408
109,1455475442.66117334365844726562,376
110,1455475442.71091938018798828125,392
111,1455475442.76054835319519042969,464
112,1455475442.81137537956237792969,544
113,1455475442.86106777191162109375,600
114,1455475442.91088056564331054688,608
115,1455475442.96059370040893554688,552
116,1455475443.011852264404296875,472
117,1455475443.06067395210266113281,400
118,1455475443.11154317855834960938,376
119,1455475443.16123056411743164062,400
120,1455475443.21090149879455566406,472
121,1455475443.26073503494262695312,552
122,1455475443.31140804290771484375,608
123,1455475443.36122679710388183594,600
124,1455475443.4109859466552734375,544
125,1455475443.46089315414428710938,464
126,1455475443.5105571746826171875,392
127,1455475443.56135678291320800781,376
128,1455475443.61108684539794921875,408
129,1455475443.66120219230651855469,480
130,1455475443.71108365058898925781,560
131,1455475443.76076197624206542969,608
132,1455475443.81155180931091308594,600
133,1455475443.86128306388854980469,536
134,1455475443.91130471229553222656,456
135,1455475443.9609432220458984375,392
136,1455475444.01066493988037109375,376
137,1455475444.06136155128479003906,416
138,1455475444.11106085777282714844,488
139,1455475444.16089177131652832031,568
140,1455475444.21160078048706054688,608
141,1455475444.2615146636962890625,592
142,1455475444.31128954887390136719,528
143,1455475444.36113667488098144531,448
144,1455475444.41084003448486328125,384
145,1455475444.46163964271545410156,376
146,1455475444.51134967803955078125,424
147,1455475444.56104254722595214844,504
148,1455475444.61089992523193359375,576
149,1455475444.66054701805114746094,608
150,1455475444.71142530441284179688,592
151,1455475444.76115345954895019531,520
152,1455475444.81099224090576171875,440
153,1455475444.8606204986572265625,384
154,1455475444.91144418716430664062,376
155,1455475444.96116995811462402344,432
156,1455475445.01092195510864257812,512
157,1455475445.06066107749938964844,584
158,1455475445.11135268211364746094,608
159,1455475445.16131067276000976562,584
160,1455475445.21096038818359375,512
161,1455475445.2607269287109375,432
162,1455475445.311450958251953125,376
163,1455475445.36124849319458007812,384
164,1455475445.41098475456237792969,440
165,1455475445.46065044403076171875,520
166,1455475445.51144742965698242188,592
167,1455475445.56118607521057128906,608
168,1455475445.61109256744384765625,576
169,1455475445.660816192626953125,504
170,1455475445.71165347099304199219,424
171,1455475445.76135206222534179688,376
172,1455475445.811176300048828125,384
173,1455475445.860942840576171875,448
174,1455475445.91056132316589355469,528
175,1455475445.961383819580078125,592
176,1455475446.01141381263732910156,512
177,1455475446.06143975257873535156,584
178,1455475446.11116123199462890625,608
179,1455475446.16104578971862792969,584
180,1455475446.21076703071594238281,512
181,1455475446.26159691810607910156,432
182,1455475446.31138491630554199219,376
183,1455475446.36108565330505371094,384
184,1455475446.41099905967712402344,440
185,1455475446.4606609344482421875,520
186,1455475446.51146912574768066406,592
187,1455475446.56118750572204589844,608
188,1455475446.61107730865478515625,576
189,1455475446.6608123779296875,504
190,1455475446.71161913871765136719,424
191,1455475446.76136183738708496094,376
192,1455475446.81105518341064453125,384
193,1455475446.86097764968872070312,448
194,1455475446.91066741943359375,528
195,1455475446.96136760711669921875,592
196,1455475447.0114269256591796875,608
197,1455475447.06146192550659179688,568
198,1455475447.11121582984924316406,488
199,1455475447.1610260009765625,416
200,1455475447.21073794364929199219,376
201,1455475447.26143932342529296875,392
202,1455475447.31141114234924316406,456
203,1455475447.36112332344055175781,536
204,1455475447.41090059280395507812,600
205,1455475447.46162009239196777344,608
206,1455475447.51151275634765625,560
207,1455475447.56121015548706054688,480
208,1455475447.61104130744934082031,408
209,1455475447.66077184677124023438,376
210,1455475447.71147036552429199219,392
211,1455475447.76138353347778320312,464
212,1455475447.8110904693603515625,544
213,1455475447.86090946197509765625,600
214,1455475447.9105377197265625,608
215,1455475447.96140432357788085938,552
216,1455475448.01147127151489257812,472
217,1455475448.061389923095703125,400
218,1455475448.11111712455749511719,376
219,1455475448.16080594062805175781,400
220,1455475448.21066617965698242188,472
221,1455475448.2614345550537109375,552
222,1455475448.31133913993835449219,608
223,1455475448.36104726791381835938,600
224,1455475448.41091012954711914062,544
225,1455475448.46149206161499023438,464
226,1455475448.51135897636413574219,392
227,1455475448.56108880043029785156,376
228,1455475448.61061906814575195312,408
229,1455475448.66147780418395996094,480
230,1455475448.71119809150695800781,560
231,1455475448.76103067398071289062,608
232,1455475448.81154179573059082031,600
233,1455475448.86136412620544433594,536
234,1455475448.91108226776123046875,456
235,1455475448.96092963218688964844,392
236,1455475449.0108356475830078125,376
237,1455475449.06098699569702148438,416
238,1455475449.11087942123413085938,488
239,1455475449.16160941123962402344,568
240,1455475449.21144175529479980469,608
241,1455475449.26115369796752929688,592
242,1455475449.31106686592102050781,528
243,1455475449.36083531379699707031,448
244,1455475449.41173839569091796875,384
245,1455475449.46152210235595703125,376
246,1455475449.51122641563415527344,424
247,1455475449.56107044219970703125,504
248,1455475449.61083126068115234375,576
249,1455475449.66058969497680664062,608
250,1455475449.71126890182495117188,592
251,1455475449.76115393638610839844,520
252,1455475449.81077599525451660156,440
253,1455475449.86167693138122558594,384
254,1455475449.91144013404846191406,376
255,1455475449.96114683151245117188,432
256,1455475450.01129984855651855469,512
257,1455475450.06103348731994628906,584
258,1455475450.11089658737182617188,608
259,1455475450.16055154800415039062,584
260,1455475450.21148347854614257812,512
261,1455475450.26124644279479980469,432
262,1455475450.31111860275268554688,376
263,1455475450.36085677146911621094,384
264,1455475450.41050863265991210938,440
265,1455475450.46132159233093261719,520
266,1455475450.51105523109436035156,592
267,1455475450.56087756156921386719,608
268,1455475450.61157846450805664062,576
269,1455475450.66158127784729003906,504
270,1455475450.7113018035888671875,424
271,1455475450.76111531257629394531,376
272,1455475450.81061100959777832031,384
273,1455475450.86131501197814941406,448
274,1455475450.91114664077758789062,528
275,1455475450.96081376075744628906,592
276,1455475451.01076626777648925781,608
277,1455475451.06062769889831542969,568
278,1455475451.11159944534301757812,488
279,1455475451.16134595870971679688,416
280,1455475451.21112108230590820312,376
281,1455475451.2608394622802734375,392
282,1455475451.31156468391418457031,456
283,1455475451.36145305633544921875,536
284,1455475451.41118311882019042969,600
285,1455475451.4610748291015625,608
286,1455475451.51059627532958984375,560
287,1455475451.56152796745300292969,480
288,1455475451.611217498779296875,408
289,1455475451.66106176376342773438,376
290,1455475451.71077704429626464844,392
291,1455475451.76151132583618164062,464
292,1455475451.81136083602905273438,544
293,1455475451.86107420921325683594,600
294,1455475451.91091156005859375,608
295,1455475451.96166062355041503906,552
296,1455475452.01194691658020019531,472
297,1455475452.06073689460754394531,400
298,1455475452.11154890060424804688,376
299,1455475452.16129779815673828125,400
300,1455475452.21094751358032226562,472
301,1455475452.26082158088684082031,552
302,1455475452.31156229972839355469,608
303,1455475452.36150193214416503906,600
304,1455475452.41128516197204589844,544
305,1455475452.46108651161193847656,464
306,1455475452.510711669921875,392
307,1455475452.56155943870544433594,376
308,1455475452.61129808425903320312,408
309,1455475452.66098999977111816406,480
310,1455475452.71081900596618652344,560
311,1455475452.76152706146240234375,608
312,1455475452.81147217750549316406,600
313,1455475452.86116576194763183594,536
314,1455475452.91103529930114746094,456
315,1455475452.96076726913452148438,392
316,1455475453.01156640052795410156,376
317,1455475453.06129884719848632812,416
318,1455475453.11099982261657714844,488
319,1455475453.16082978248596191406,568
320,1455475453.21152448654174804688,608
321,1455475453.26142406463623046875,592
322,1455475453.31115841865539550781,528
323,1455475453.36102604866027832031,448
324,1455475453.41074872016906738281,384
325,1455475453.46156716346740722656,376
326,1455475453.51128339767456054688,424
327,1455475453.56099557876586914062,504
328,1455475453.61086368560791015625,576
329,1455475453.66156911849975585938,608
330,1455475453.71148085594177246094,592
331,1455475453.76122641563415527344,520
332,1455475453.81107234954833984375,440
333,1455475453.86082887649536132812,384
334,1455475453.91166543960571289062,376
335,1455475453.96139550209045410156,432
336,1455475454.01110672950744628906,512
337,1455475454.06090855598449707031,584
338,1455475454.11158156394958496094,608
339,1455475454.16144800186157226562,584
340,1455475454.21113419532775878906,512
341,1455475454.261051177978515625,432
342,1455475454.31077504158020019531,376
343,1455475454.36156988143920898438,384
344,1455475454.4113216400146484375,440
345,1455475454.46095800399780273438,520
346,1455475454.51092839241027832031,592
347,1455475454.56160140037536621094,608
348,1455475454.61156368255615234375,576
349,1455475454.66131424903869628906,504
350,1455475454.71119904518127441406,424
351,1455475454.76094555854797363281,376
352,1455475454.8117237091064453125,384
353,1455475454.86143755912780761719,448
354,1455475454.91135382652282714844,528
355,1455475454.96125054359436035156,592
356,1455475455.01127266883850097656,512
357,1455475455.06124830245971679688,584
358,1455475455.11100602149963378906,608
359,1455475455.16087627410888671875,584
360,1455475455.21053290367126464844,512
361,1455475455.26135897636413574219,432
362,1455475455.31111812591552734375,376
363,1455475455.36084485054016113281,384
364,1455475455.41075491905212402344,440
365,1455475455.46145725250244140625,520
366,1455475455.51130819320678710938,592
367,1455475455.56101822853088378906,608
368,1455475455.61083626747131347656,576
369,1455475455.66156601905822753906,504
370,1455475455.71132898330688476562,424
371,1455475455.76111602783203125,376
372,1455475455.8105926513671875,384
373,1455475455.86153435707092285156,448
374,1455475455.911289215087890625,528
375,1455475455.9611148834228515625,592
376,1455475456.01109671592712402344,608
377,1455475456.06109762191772460938,568
378,1455475456.11085844039916992188,496
379,1455475456.16176486015319824219,416
380,1455475456.21154022216796875,376
381,1455475456.26126456260681152344,392
382,1455475456.31110858917236328125,456
383,1455475456.36081647872924804688,536
384,1455475456.41056489944458007812,600
385,1455475456.46114230155944824219,608
386,1455475456.51103949546813964844,560
387,1455475456.56063127517700195312,480
388,1455475456.61153459548950195312,408
389,1455475456.66133141517639160156,376
390,1455475456.71096563339233398438,392
391,1455475456.76078367233276367188,464
392,1455475456.81145215034484863281,544
393,1455475456.86123418807983398438,600
394,1455475456.9109668731689453125,608
395,1455475456.96078753471374511719,552
396,1455475457.01172852516174316406,472
397,1455475457.06296896934509277344,400
398,1455475457.11083626747131347656,376
399,1455475457.16155552864074707031,400
400,1455475457.21141648292541503906,472
401,1455475457.2611446380615234375,552
402,1455475457.31103205680847167969,608
403,1455475457.360698699951171875,600
404,1455475457.41157579421997070312,544
405,1455475457.46129918098449707031,464
406,1455475457.51121425628662109375,392
407,1455475457.56096768379211425781,376
408,1455475457.61061000823974609375,408
409,1455475457.66148352622985839844,480
410,1455475457.71114873886108398438,560
411,1455475457.760997772216796875,608
412,1455475457.81151080131530761719,600
413,1455475457.86136174201965332031,536
414,1455475457.91108417510986328125,456
415,1455475457.96094274520874023438,392
416,1455475458.01083254814147949219,376
417,1455475458.06066870689392089844,416
418,1455475458.11154317855834960938,496
419,1455475458.16130352020263671875,568
420,1455475458.21111249923706054688,608
421,1455475458.26089382171630859375,592
422,1455475458.310802459716796875,528
423,1455475458.36153078079223632812,448
424,1455475458.41140842437744140625,384
425,1455475458.46112537384033203125,376
426,1455475458.5108356475830078125,424
427,1455475458.56065821647644042969,504
428,1455475458.6113681793212890625,576
429,1455475458.661220550537109375,608
430,1455475458.71104192733764648438,592
431,1455475458.76107692718505859375,520
432,1455475458.81057071685791015625,440
433,1455475458.86140275001525878906,384
434,1455475458.91117310523986816406,376
435,1455475458.96094536781311035156,432
436,1455475459.01126694679260253906,512
437,1455475459.06112909317016601562,584
438,1455475459.11098384857177734375,608
439,1455475459.16061854362487792969,584
440,1455475459.21155810356140136719,512
441,1455475459.26129198074340820312,432
442,1455475459.31115627288818359375,376
443,1455475459.36088418960571289062,384
444,1455475459.41152071952819824219,440
445,1455475459.46158385276794433594,520
446,1455475459.51130819320678710938,592
447,1455475459.56109404563903808594,608
448,1455475459.61082911491394042969,576
449,1455475459.66183972358703613281,504
450,1455475459.71057820320129394531,424
451,1455475459.761417388916015625,376
452,1455475459.8111248016357421875,384
453,1455475459.86086249351501464844,448
454,1455475459.91061305999755859375,528
455,1455475459.96132993698120117188,592
456,1455475460.01152539253234863281,608
457,1455475460.06139588356018066406,568
458,1455475460.11129546165466308594,488
459,1455475460.16099786758422851562,416
460,1455475460.21074700355529785156,376
461,1455475460.26149439811706542969,392
462,1455475460.3112430572509765625,456
463,1455475460.361087799072265625,536
464,1455475460.41080737113952636719,600
465,1455475460.46065568923950195312,608
466,1455475460.5114040374755859375,560
467,1455475460.56129813194274902344,480
468,1455475460.61103057861328125,408
469,1455475460.66088461875915527344,376
470,1455475460.71055150032043457031,392
471,1455475460.76126742362976074219,464
472,1455475460.81108570098876953125,544
473,1455475460.86081147193908691406,600
474,1455475460.91060996055603027344,608
475,1455475460.96132397651672363281,552
476,1455475461.01148271560668945312,472
477,1455475461.06138134002685546875,400
478,1455475461.11119222640991210938,376
479,1455475461.16096210479736328125,400
480,1455475461.21060323715209960938,472
481,1455475461.26147031784057617188,552
482,1455475461.31122469902038574219,608
483,1455475461.36109375953674316406,600
484,1455475461.41081190109252929688,544
485,1455475461.46166777610778808594,464
486,1455475461.51136755943298339844,392
487,1455475461.56118893623352050781,376
488,1455475461.61095714569091796875,408
489,1455475461.66054701805114746094,480
490,1455475461.71134781837463378906,560
491,1455475461.76108384132385253906,608
492,1455475461.81101632118225097656,600
493,1455475461.8607883453369140625,536
494,1455475461.91174030303955078125,456
495,1455475461.96146702766418457031,392
496,1455475462.01125860214233398438,376
497,1455475462.06102061271667480469,416
498,1455475462.11071872711181640625,488
499,1455475462.16103386878967285156,568
500,1455475462.21069073677062988281,608
501,1455475462.261505126953125,592
502,1455475462.3112945556640625,528
503,1455475462.36115980148315429688,448
504,1455475462.41089749336242675781,384
