id, time (s), size (bits)
0,1455475928.72517108917236328125,408
1,1455475928.77533960342407226562,488
2,1455475928.82465720176696777344,568
3,1455475928.87512373924255371094,608
4,1455475928.92599701881408691406,592
5,1455475928.97467660903930664062,536
6,1455475929.02532911300659179688,448
7,1455475929.07506585121154785156,384
8,1455475929.12507557868957519531,376
9,1455475929.17497706413269042969,416
10,1455475929.22668790817260742188,496
11,1455475929.2768993377685546875,576
12,1455475929.32575559616088867188,608
13,1455475929.37546372413635253906,592
14,1455475929.42541074752807617188,528
15,1455475929.47473788261413574219,440
16,1455475929.52616810798645019531,384
17,1455475929.57620882987976074219,376
18,1455475929.6256809234619140625,424
19,1455475929.67557311058044433594,504
20,1455475929.72528696060180664062,584
21,1455475929.77566003799438476562,608
22,1455475929.82613372802734375,584
23,1455475929.87685513496398925781,512
24,1455475929.92561435699462890625,432
25,1455475929.97575998306274414062,376
26,1455475930.02491545677185058594,376
27,1455475930.07513332366943359375,432
28,1455475930.12662410736083984375,520
29,1455475930.17680978775024414062,592
30,1455475930.22563886642456054688,608
31,1455475930.27530455589294433594,576
32,1455475930.32479715347290039062,504
33,1455475930.37495732307434082031,424
34,1455475930.42567110061645507812,376
35,1455475930.475322723388671875,384
36,1455475930.52549028396606445312,440
37,1455475930.57486557960510253906,528
38,1455475930.62558078765869140625,592
39,1455475930.67461729049682617188,608
40,1455475930.72632956504821777344,568
41,1455475930.77588391304016113281,496
42,1455475930.82515358924865722656,416
43,1455475930.87468171119689941406,376
44,1455475930.92521309852600097656,384
45,1455475930.97531652450561523438,448
46,1455475931.02669262886047363281,536
47,1455475931.07657003402709960938,600
48,1455475931.12539243698120117188,608
49,1455475931.17512869834899902344,568
50,1455475931.22558832168579101562,488
51,1455475931.27573513984680175781,408
52,1455475931.32612466812133789062,376
53,1455475931.37629437446594238281,392
54,1455475931.42476701736450195312,456
55,1455475931.47591686248779296875,544
56,1455475931.52508211135864257812,600
57,1455475931.57558131217956542969,608
58,1455475931.62652158737182617188,560
59,1455475931.67673397064208984375,472
60,1455475931.72565245628356933594,400
61,1455475931.77557015419006347656,376
62,1455475931.82543110847473144531,400
63,1455475931.87529230117797851562,472
64,1455475931.92607069015502929688,552
65,1455475931.97639942169189453125,608
66,1455475932.02525973320007324219,536
67,1455475932.07477068901062011719,600
68,1455475932.12498235702514648438,608
69,1455475932.17463898658752441406,568
70,1455475932.22557282447814941406,488
71,1455475932.27679228782653808594,408
72,1455475932.32542324066162109375,376
73,1455475932.37468266487121582031,392
74,1455475932.42523336410522460938,456
75,1455475932.47564148902893066406,544
76,1455475932.5270290374755859375,600
77,1455475932.57716917991638183594,608
78,1455475932.62496542930603027344,560
79,1455475932.674793243408203125,480
80,1455475932.72700667381286621094,400
81,1455475932.77479219436645507812,376
82,1455475932.82614421844482421875,400
83,1455475932.87497997283935546875,472
84,1455475932.92544102668762207031,552
85,1455475932.975246429443359375,608
86,1455475933.02524113655090332031,608
87,1455475933.07477903366088867188,552
88,1455475933.12616586685180664062,464
89,1455475933.17595386505126953125,400
90,1455475933.22578382492065429688,376
91,1455475933.27535080909729003906,408
92,1455475933.32490372657775878906,480
93,1455475933.37484645843505859375,560
94,1455475933.42678785324096679688,608
95,1455475933.47713541984558105469,600
96,1455475933.52524662017822265625,544
97,1455475933.57786297798156738281,456
98,1455475933.62538743019104003906,392
99,1455475933.67543077468872070312,376
100,1455475933.72625994682312011719,416
101,1455475933.77978563308715820312,496
102,1455475933.82563352584838867188,568
103,1455475933.87532949447631835938,608
104,1455475933.92512798309326171875,600
105,1455475933.97621560096740722656,528
106,1455475934.02694821357727050781,448
107,1455475934.07590246200561523438,384
108,1455475934.12537503242492675781,376
109,1455475934.175769805908203125,416
110,1455475934.22661638259887695312,496
111,1455475934.27574062347412109375,576
112,1455475934.32635569572448730469,608
113,1455475934.37740850448608398438,592
114,1455475934.42485189437866210938,528
115,1455475934.475555419921875,440
116,1455475934.52551889419555664062,384
117,1455475934.57485437393188476562,376
118,1455475934.62657308578491210938,424
119,1455475934.67543148994445800781,504
120,1455475934.7257366180419921875,584
121,1455475934.77536177635192871094,608
122,1455475934.82466363906860351562,584
123,1455475934.87539076805114746094,512
124,1455475934.92540788650512695312,432
125,1455475934.97542333602905273438,376
126,1455475935.0252532958984375,376
127,1455475935.07519292831420898438,432
128,1455475935.12550449371337890625,520
129,1455475935.17513418197631835938,584
130,1455475935.22600769996643066406,608
131,1455475935.27635622024536132812,576
132,1455475935.32540655136108398438,504
133,1455475935.37525010108947753906,424
134,1455475935.4258594512939453125,376
135,1455475935.47522258758544921875,384
136,1455475935.5267505645751953125,448
137,1455475935.57655644416809082031,528
138,1455475935.62513899803161621094,592
139,1455475935.67544794082641601562,608
140,1455475935.72490215301513671875,576
141,1455475935.77552342414855957031,496
142,1455475935.82703542709350585938,416
143,1455475935.87688851356506347656,376
144,1455475935.92526125907897949219,384
145,1455475935.9754619598388671875,448
146,1455475936.02539300918579101562,536
147,1455475936.07539677619934082031,600
148,1455475936.12600207328796386719,608
149,1455475936.17712950706481933594,560
150,1455475936.22469782829284667969,488
151,1455475936.27475976943969726562,408
152,1455475936.32559251785278320312,376
153,1455475936.37585902214050292969,392
154,1455475936.42698502540588378906,464
155,1455475936.47686481475830078125,544
156,1455475936.52477169036865234375,600
157,1455475936.57552599906921386719,608
158,1455475936.62580943107604980469,560
159,1455475936.67517971992492675781,480
160,1455475936.72651124000549316406,400
161,1455475936.77532052993774414062,376
162,1455475936.82512950897216796875,400
163,1455475936.87568020820617675781,472
164,1455475936.92558407783508300781,552
165,1455475936.97502255439758300781,608
166,1455475937.025325775146484375,608
167,1455475937.07548499107360839844,552
168,1455475937.12539768218994140625,472
169,1455475937.17562603950500488281,400
170,1455475937.22536563873291015625,376
171,1455475937.27640891075134277344,408
172,1455475937.3256931304931640625,480
173,1455475937.37705135345458984375,560
174,1455475937.42580199241638183594,608
175,1455475937.47566080093383789062,600
176,1455475937.52509260177612304688,544
177,1455475937.57700347900390625,456
178,1455475937.62655472755432128906,392
179,1455475937.67681193351745605469,376
180,1455475937.72515463829040527344,408
181,1455475937.77498030662536621094,488
182,1455475937.82459187507629394531,568
183,1455475937.87560296058654785156,608
184,1455475937.92639827728271484375,592
185,1455475937.97635912895202636719,528
186,1455475938.02526569366455078125,448
187,1455475938.07519888877868652344,384
188,1455475938.12523865699768066406,376
189,1455475938.17551112174987792969,416
190,1455475938.22603130340576171875,496
191,1455475938.27738928794860839844,576
192,1455475938.32507038116455078125,608
193,1455475938.37504792213439941406,592
194,1455475938.42520093917846679688,528
195,1455475938.47471380233764648438,440
196,1455475938.52695775032043457031,384
197,1455475938.57673621177673339844,376
198,1455475938.62545442581176757812,424
199,1455475938.67537188529968261719,504
200,1455475938.72498989105224609375,584
201,1455475938.77493238449096679688,608
202,1455475938.82613372802734375,584
203,1455475938.87737393379211425781,512
204,1455475938.92465615272521972656,432
205,1455475938.97530865669250488281,376
206,1455475939.02487277984619140625,376
207,1455475939.07555150985717773438,432
208,1455475939.12597298622131347656,520
209,1455475939.17598080635070800781,584
210,1455475939.22530484199523925781,608
211,1455475939.27506232261657714844,584
212,1455475939.32561063766479492188,504
213,1455475939.37526774406433105469,424
214,1455475939.42696690559387207031,376
215,1455475939.476924896240234375,384
216,1455475939.52574753761291503906,440
217,1455475939.57584524154663085938,528
218,1455475939.62474298477172851562,592
219,1455475939.67529416084289550781,608
220,1455475939.72637891769409179688,568
221,1455475939.77694845199584960938,496
222,1455475939.82585287094116210938,416
223,1455475939.87538266181945800781,376
224,1455475939.92489194869995117188,384
225,1455475939.97489261627197265625,448
226,1455475940.0271091461181640625,536
227,1455475940.07494568824768066406,600
228,1455475940.12488436698913574219,608
229,1455475940.17520117759704589844,568
230,1455475940.22509169578552246094,488
231,1455475940.27567458152770996094,408
232,1455475940.32662439346313476562,376
233,1455475940.37702918052673339844,392
234,1455475940.42514538764953613281,456
235,1455475940.47536253929138183594,544
236,1455475940.52542805671691894531,600
237,1455475940.575893402099609375,608
238,1455475940.62519669532775878906,560
239,1455475940.67644405364990234375,472
240,1455475940.72497606277465820312,400
241,1455475940.775592803955078125,376
242,1455475940.8246746063232421875,400
243,1455475940.87557220458984375,472
244,1455475940.92679357528686523438,552
245,1455475940.97689580917358398438,608
246,1455475941.02551865577697753906,536
247,1455475941.07587909698486328125,600
248,1455475941.12499761581420898438,608
249,1455475941.17513990402221679688,568
250,1455475941.22598576545715332031,488
251,1455475941.27638602256774902344,408
252,1455475941.3250789642333984375,376
253,1455475941.37574243545532226562,392
254,1455475941.42531633377075195312,456
255,1455475941.47537398338317871094,544
256,1455475941.52593231201171875,600
257,1455475941.57697224617004394531,608
258,1455475941.62604594230651855469,560
259,1455475941.67549824714660644531,480
260,1455475941.72555255889892578125,400
261,1455475941.77469348907470703125,376
262,1455475941.82638883590698242188,400
263,1455475941.87659692764282226562,472
264,1455475941.92479300498962402344,552
265,1455475941.97578096389770507812,608
266,1455475942.02576017379760742188,608
267,1455475942.07458972930908203125,552
268,1455475942.12542891502380371094,464
269,1455475942.17659759521484375,400
270,1455475942.22505784034729003906,376
271,1455475942.27557277679443359375,408
272,1455475942.32510709762573242188,480
273,1455475942.37509608268737792969,560
274,1455475942.42662382125854492188,608
275,1455475942.47479224205017089844,600
276,1455475942.52495622634887695312,544
277,1455475942.5752716064453125,456
278,1455475942.62468791007995605469,392
279,1455475942.67580652236938476562,376
280,1455475942.72663211822509765625,416
281,1455475942.77540135383605957031,488
282,1455475942.82565045356750488281,568
283,1455475942.87492728233337402344,608
284,1455475942.92736864089965820312,592
285,1455475942.97492814064025878906,536
286,1455475943.02602124214172363281,448
287,1455475943.07777500152587890625,384
288,1455475943.12529087066650390625,376
289,1455475943.17529916763305664062,416
290,1455475943.22502493858337402344,496
291,1455475943.27560114860534667969,576
292,1455475943.32624506950378417969,608
293,1455475943.37639570236206054688,592
294,1455475943.42568373680114746094,520
295,1455475943.47567987442016601562,440
296,1455475943.5249462127685546875,384
297,1455475943.57548236846923828125,376
298,1455475943.62696313858032226562,432
299,1455475943.67729043960571289062,512
300,1455475943.72480940818786621094,576
301,1455475943.77522945404052734375,608
302,1455475943.82569169998168945312,584
303,1455475943.87511157989501953125,512
304,1455475943.92507696151733398438,432
305,1455475943.97709226608276367188,376
306,1455475944.02479505538940429688,376
307,1455475944.07580137252807617188,432
308,1455475944.12503075599670410156,512
309,1455475944.17528462409973144531,584
310,1455475944.22487282752990722656,608
311,1455475944.27687501907348632812,576
312,1455475944.32541632652282714844,504
313,1455475944.37559723854064941406,424
314,1455475944.42503690719604492188,376
315,1455475944.47510981559753417969,384
316,1455475944.52748823165893554688,448
317,1455475944.57658839225769042969,528
318,1455475944.62494874000549316406,592
319,1455475944.6751708984375,608
320,1455475944.72719573974609375,568
321,1455475944.77512574195861816406,496
322,1455475944.82723927497863769531,416
323,1455475944.87502527236938476562,376
324,1455475944.92506194114685058594,384
325,1455475944.97560715675354003906,448
326,1455475945.02528262138366699219,536
327,1455475945.07545590400695800781,600
328,1455475945.12592554092407226562,608
329,1455475945.17666459083557128906,568
330,1455475945.22558188438415527344,488
331,1455475945.27538061141967773438,408
332,1455475945.32503032684326171875,376
333,1455475945.37489795684814453125,392
334,1455475945.42502951622009277344,456
335,1455475945.47785615921020507812,544
336,1455475945.525238037109375,600
337,1455475945.575649261474609375,608
338,1455475945.62506747245788574219,560
339,1455475945.67486858367919921875,480
340,1455475945.72626328468322753906,400
341,1455475945.77855587005615234375,376
342,1455475945.82526850700378417969,400
343,1455475945.8753376007080078125,472
344,1455475945.92558169364929199219,552
345,1455475945.97525119781494140625,608
346,1455475946.02645349502563476562,600
347,1455475946.07480788230895996094,552
348,1455475946.12551736831665039062,464
349,1455475946.17459464073181152344,400
350,1455475946.22537302970886230469,376
351,1455475946.27576303482055664062,408
352,1455475946.32577967643737792969,480
353,1455475946.37702155113220214844,560
354,1455475946.42470479011535644531,608
355,1455475946.4756183624267578125,600
356,1455475946.52563238143920898438,544
357,1455475946.57512617111206054688,456
358,1455475946.62525153160095214844,392
359,1455475946.67777180671691894531,376
360,1455475946.72555375099182128906,408
361,1455475946.77479696273803710938,488
362,1455475946.82500934600830078125,568
363,1455475946.87556958198547363281,608
364,1455475946.92680144309997558594,592
365,1455475946.97472715377807617188,536
366,1455475947.02511906623840332031,448
367,1455475947.07571578025817871094,384
368,1455475947.12554979324340820312,376
369,1455475947.17553162574768066406,416
370,1455475947.22619700431823730469,496
371,1455475947.27593946456909179688,576
372,1455475947.32565546035766601562,608
373,1455475947.37515163421630859375,592
374,1455475947.42530894279479980469,528
375,1455475947.47507047653198242188,440
376,1455475947.52608799934387207031,384
377,1455475947.57707238197326660156,376
378,1455475947.62478971481323242188,424
379,1455475947.675140380859375,504
380,1455475947.7251415252685546875,584
381,1455475947.77467560768127441406,608
382,1455475947.82723951339721679688,584
383,1455475947.87656998634338378906,512
384,1455475947.92535543441772460938,432
385,1455475947.97473883628845214844,376
386,1455475948.02541661262512207031,376
387,1455475948.07500720024108886719,432
388,1455475948.12615180015563964844,520
389,1455475948.17700910568237304688,592
390,1455475948.225513458251953125,608
391,1455475948.27546620368957519531,576
392,1455475948.32512354850769042969,504
393,1455475948.37502598762512207031,424
394,1455475948.42592668533325195312,376
395,1455475948.47457981109619140625,384
396,1455475948.52531385421752929688,440
397,1455475948.57514309883117675781,528
398,1455475948.62567186355590820312,592
399,1455475948.6755428314208984375,608
400,1455475948.72636818885803222656,568
401,1455475948.77698874473571777344,496
402,1455475948.82476353645324707031,416
403,1455475948.87541890144348144531,376
404,1455475948.92484283447265625,384
405,1455475948.97580838203430175781,448
406,1455475949.02497434616088867188,536
407,1455475949.07640480995178222656,600
408,1455475949.12548708915710449219,608
409,1455475949.17549014091491699219,568
410,1455475949.22566986083984375,488
411,1455475949.27505970001220703125,408
412,1455475949.32665681838989257812,376
413,1455475949.37640643119812011719,392
414,1455475949.425479888916015625,464
415,1455475949.47560858726501464844,544
416,1455475949.52536940574645996094,600
417,1455475949.57524228096008300781,608
418,1455475949.62603020668029785156,560
419,1455475949.67510056495666503906,480
420,1455475949.72542309761047363281,400
421,1455475949.77465558052062988281,376
422,1455475949.82463955879211425781,400
423,1455475949.87548732757568359375,472
424,1455475949.92581534385681152344,552
425,1455475949.9771289825439453125,608
426,1455475950.02527689933776855469,536
427,1455475950.07493638992309570312,600
428,1455475950.1256389617919921875,608
429,1455475950.17471289634704589844,568
430,1455475950.22470974922180175781,488
431,1455475950.27615904808044433594,408
432,1455475950.32560110092163085938,376
433,1455475950.37521791458129882812,392
434,1455475950.42480921745300292969,456
435,1455475950.47513747215270996094,544
436,1455475950.52712559700012207031,600
437,1455475950.57596445083618164062,608
438,1455475950.62529063224792480469,560
439,1455475950.6752986907958984375,480
440,1455475950.72540926933288574219,400
441,1455475950.77471494674682617188,376
442,1455475950.82631397247314453125,400
443,1455475950.87631773948669433594,472
444,1455475950.92477369308471679688,552
445,1455475950.97500658035278320312,608
446,1455475951.02517175674438476562,608
447,1455475951.07557654380798339844,552
448,1455475951.12654376029968261719,464
449,1455475951.17642164230346679688,400
450,1455475951.22506999969482421875,376
451,1455475951.27569293975830078125,408
452,1455475951.32664847373962402344,480
453,1455475951.37531900405883789062,560
454,1455475951.42660498619079589844,608
455,1455475951.47673153877258300781,600
456,1455475951.52492690086364746094,544
457,1455475951.57689261436462402344,456
458,1455475951.62517642974853515625,392
459,1455475951.675807952880859375,376
460,1455475951.72488451004028320312,408
461,1455475951.77767133712768554688,488
462,1455475951.82577157020568847656,568
463,1455475951.875553131103515625,608
464,1455475951.92523360252380371094,600
465,1455475951.976428985595703125,528
466,1455475952.02674317359924316406,448
467,1455475952.07684230804443359375,384
468,1455475952.12470030784606933594,376
469,1455475952.1751728057861328125,416
470,1455475952.22468066215515136719,496
471,1455475952.27541494369506835938,576
472,1455475952.32681250572204589844,608
473,1455475952.37514519691467285156,592
474,1455475952.42528653144836425781,528
475,1455475952.47550272941589355469,440
476,1455475952.52519822120666503906,384
477,1455475952.57539296150207519531,376
478,1455475952.62663531303405761719,424
479,1455475952.83543896675109863281,576
480,1455475952.84363913536071777344,560
481,1455475952.88696384429931640625,496
482,1455475952.93768620491027832031,416
483,1455475952.98879981040954589844,376
484,1455475953.0372161865234375,392
485,1455475953.08853626251220703125,456
486,1455475953.13732933998107910156,536
487,1455475953.18708181381225585938,600
488,1455475953.23760080337524414062,608
489,1455475953.28658533096313476562,568
490,1455475953.33870673179626464844,480
491,1455475953.3872776031494140625,408
492,1455475953.43736720085144042969,376
493,1455475953.48752832412719726562,392
494,1455475953.53815102577209472656,464
495,1455475953.58743810653686523438,544
496,1455475953.63844037055969238281,600
497,1455475953.68897652626037597656,608
498,1455475953.73665452003479003906,560
499,1455475953.78736186027526855469,472
500,1455475953.8366031646728515625,400
501,1455475953.88868927955627441406,376
502,1455475953.93779802322387695312,400
503,1455475953.98782491683959960938,472
