id, time (s), size (bits)
0,1455475928.99393701553344726562,504
1,1455475929.05414652824401855469,408
2,1455475929.11480689048767089844,376
3,1455475929.17500805854797363281,416
4,1455475929.23556280136108398438,512
5,1455475929.29473543167114257812,592
6,1455475929.35416293144226074219,608
7,1455475929.41510868072509765625,544
8,1455475929.47424936294555664062,440
9,1455475929.5344696044921875,376
10,1455475929.59459614753723144531,392
11,1455475929.65460753440856933594,472
12,1455475929.71448421478271484375,568
13,1455475929.77449536323547363281,608
14,1455475929.83505678176879882812,576
15,1455475929.89463329315185546875,480
16,1455475929.95477604866027832031,392
17,1455475930.01395392417907714844,376
18,1455475930.07389855384826660156,432
19,1455475930.13527894020080566406,536
20,1455475930.19515347480773925781,600
21,1455475930.25485944747924804688,600
22,1455475930.31446886062622070312,520
23,1455475930.37435555458068847656,424
24,1455475930.43539500236511230469,376
25,1455475930.49380421638488769531,400
26,1455475930.55479407310485839844,488
27,1455475930.61502361297607421875,584
28,1455475930.67442440986633300781,608
29,1455475930.73554897308349609375,560
30,1455475930.7943935394287109375,464
31,1455475930.85486268997192382812,384
32,1455475930.91491222381591796875,376
33,1455475930.97473478317260742188,448
34,1455475931.03534030914306640625,552
35,1455475931.09391236305236816406,608
36,1455475931.15414094924926757812,592
37,1455475931.21402239799499511719,504
38,1455475931.27489733695983886719,408
39,1455475931.33514642715454101562,376
40,1455475931.39452195167541503906,416
41,1455475931.45396780967712402344,512
42,1455475931.51493096351623535156,592
43,1455475931.57438588142395019531,608
44,1455475931.63446879386901855469,544
45,1455475931.69457793235778808594,448
46,1455475931.75410485267639160156,376
47,1455475931.81466555595397949219,384
48,1455475931.87450742721557617188,464
49,1455475931.93497395515441894531,568
50,1455475931.99416995048522949219,608
51,1455475932.05418157577514648438,576
52,1455475932.11563038825988769531,608
53,1455475932.17385196685791015625,568
54,1455475932.23479628562927246094,472
55,1455475932.29493308067321777344,392
56,1455475932.35397243499755859375,376
57,1455475932.41481685638427734375,440
58,1455475932.47424030303955078125,544
59,1455475932.535541534423828125,608
60,1455475932.59444093704223632812,592
61,1455475932.65413069725036621094,512
62,1455475932.71410727500915527344,416
63,1455475932.77442574501037597656,376
64,1455475932.83601093292236328125,408
65,1455475932.8945369720458984375,504
66,1455475932.95483279228210449219,592
67,1455475933.01511335372924804688,608
68,1455475933.07452106475830078125,552
69,1455475933.13549780845642089844,448
70,1455475933.19437837600708007812,384
71,1455475933.254703521728515625,384
72,1455475933.31461548805236816406,464
73,1455475933.37600827217102050781,560
74,1455475933.43511414527893066406,608
75,1455475933.49426412582397460938,584
76,1455475933.55436086654663085938,496
77,1455475933.61425828933715820312,400
78,1455475933.67377448081970214844,376
79,1455475933.73484134674072265625,424
80,1455475933.79432225227355957031,520
81,1455475933.85441064834594726562,600
82,1455475933.91444492340087890625,608
83,1455475933.97477459907531738281,536
84,1455475934.03481793403625488281,432
85,1455475934.09519433975219726562,376
86,1455475934.15469884872436523438,392
87,1455475934.21477222442626953125,480
88,1455475934.27479791641235351562,576
89,1455475934.33463358879089355469,608
90,1455475934.39397764205932617188,568
91,1455475934.45421195030212402344,472
92,1455475934.5140399932861328125,392
93,1455475934.57462000846862792969,376
94,1455475934.63549089431762695312,440
95,1455475934.69469451904296875,536
96,1455475934.75474476814270019531,608
97,1455475934.81504774093627929688,592
98,1455475934.87503552436828613281,512
99,1455475934.93564558029174804688,416
100,1455475934.99392294883728027344,376
101,1455475935.05388426780700683594,408
102,1455475935.11424922943115234375,496
103,1455475935.17453312873840332031,584
104,1455475935.23478436470031738281,608
105,1455475935.29406309127807617188,552
106,1455475935.35432124137878417969,456
107,1455475935.414905548095703125,384
108,1455475935.47535228729248046875,384
109,1455475935.53502392768859863281,456
110,1455475935.5944995880126953125,552
111,1455475935.65416574478149414062,608
112,1455475935.71430850028991699219,584
113,1455475935.77435517311096191406,496
114,1455475935.83513998985290527344,408
115,1455475935.89440774917602539062,376
116,1455475935.95486617088317871094,424
117,1455475936.01436853408813476562,520
118,1455475936.07488036155700683594,600
119,1455475936.1351871490478515625,608
120,1455475936.19419598579406738281,536
121,1455475936.25387597084045410156,440
122,1455475936.31471538543701171875,376
123,1455475936.37484002113342285156,392
124,1455475936.43500113487243652344,472
125,1455475936.4943218231201171875,568
126,1455475936.55460119247436523438,608
127,1455475936.61486387252807617188,576
128,1455475936.67465734481811523438,480
129,1455475936.73507261276245117188,392
130,1455475936.79425358772277832031,376
131,1455475936.85472059249877929688,440
132,1455475936.91428017616271972656,536
133,1455475936.97473168373107910156,608
134,1455475937.03534793853759765625,600
135,1455475937.09488677978515625,520
136,1455475937.15673422813415527344,416
137,1455475937.21473622322082519531,376
138,1455475937.2746334075927734375,400
139,1455475937.33636808395385742188,496
140,1455475937.39383602142333984375,584
141,1455475937.45479178428649902344,608
142,1455475937.51445293426513671875,560
143,1455475937.57417249679565429688,464
144,1455475937.63539004325866699219,384
145,1455475937.69476628303527832031,384
146,1455475937.75417256355285644531,456
147,1455475937.81603860855102539062,552
148,1455475937.87431240081787109375,608
149,1455475937.93536257743835449219,584
150,1455475937.99455666542053222656,504
151,1455475938.05483984947204589844,408
152,1455475938.11391997337341308594,376
153,1455475938.17491984367370605469,416
154,1455475938.23483586311340332031,512
155,1455475938.29447913169860839844,592
156,1455475938.35421729087829589844,608
157,1455475938.41492462158203125,544
158,1455475938.47446274757385253906,440
159,1455475938.53557467460632324219,376
160,1455475938.59438371658325195312,392
161,1455475938.654277801513671875,472
162,1455475938.71422362327575683594,568
163,1455475938.7742633819580078125,608
164,1455475938.83542919158935546875,576
165,1455475938.89402651786804199219,480
166,1455475938.95474314689636230469,392
167,1455475939.01462602615356445312,376
168,1455475939.07484555244445800781,432
169,1455475939.13523983955383300781,536
170,1455475939.19440412521362304688,600
171,1455475939.25530529022216796875,600
172,1455475939.31384038925170898438,528
173,1455475939.37416386604309082031,424
174,1455475939.43547534942626953125,376
175,1455475939.49427151679992675781,400
176,1455475939.55392336845397949219,488
177,1455475939.61417651176452636719,584
178,1455475939.67524003982543945312,608
179,1455475939.73560237884521484375,560
180,1455475939.79486966133117675781,464
181,1455475939.8544673919677734375,384
182,1455475939.91470670700073242188,376
183,1455475939.97441363334655761719,448
184,1455475940.03459763526916503906,552
185,1455475940.09522247314453125,608
186,1455475940.154163360595703125,592
187,1455475940.21439623832702636719,504
188,1455475940.27467203140258789062,408
189,1455475940.33536410331726074219,376
190,1455475940.39452219009399414062,416
191,1455475940.45492386817932128906,512
192,1455475940.51522660255432128906,592
193,1455475940.57468676567077636719,608
194,1455475940.63510489463806152344,544
195,1455475940.69431638717651367188,448
196,1455475940.75428891181945800781,376
197,1455475940.81422448158264160156,384
198,1455475940.87414026260375976562,464
199,1455475940.93741726875305175781,568
200,1455475940.99472713470458984375,608
201,1455475941.0539703369140625,576
202,1455475941.11591076850891113281,608
203,1455475941.17445898056030273438,568
204,1455475941.23489856719970703125,472
205,1455475941.29415822029113769531,392
206,1455475941.35566616058349609375,376
207,1455475941.41491532325744628906,440
208,1455475941.47512912750244140625,544
209,1455475941.53528809547424316406,608
210,1455475941.59440493583679199219,592
211,1455475941.65403699874877929688,512
212,1455475941.71397614479064941406,416
213,1455475941.7740612030029296875,376
214,1455475941.83491539955139160156,408
215,1455475941.89476680755615234375,504
216,1455475941.95429396629333496094,584
217,1455475942.01446056365966796875,608
218,1455475942.07450008392333984375,552
219,1455475942.1356754302978515625,448
220,1455475942.19703006744384765625,376
221,1455475942.25510573387145996094,384
222,1455475942.31407189369201660156,456
223,1455475942.37495160102844238281,560
224,1455475942.43503022193908691406,608
225,1455475942.49461388587951660156,584
226,1455475942.55442190170288085938,496
227,1455475942.61506319046020507812,400
228,1455475942.67427682876586914062,376
229,1455475942.73461198806762695312,424
230,1455475942.79402303695678710938,520
231,1455475942.8573131561279296875,600
232,1455475942.913791656494140625,608
233,1455475942.97451949119567871094,536
234,1455475943.0350894927978515625,432
235,1455475943.09401750564575195312,376
236,1455475943.154003143310546875,392
237,1455475943.21452569961547851562,480
238,1455475943.27441382408142089844,576
239,1455475943.33487963676452636719,608
240,1455475943.39414215087890625,568
241,1455475943.45472431182861328125,472
242,1455475943.51376271247863769531,392
243,1455475943.57498764991760253906,376
244,1455475943.63502216339111328125,440
245,1455475943.69483804702758789062,536
246,1455475943.75388813018798828125,608
247,1455475943.81401705741882324219,600
248,1455475943.87466001510620117188,520
249,1455475943.93459582328796386719,416
250,1455475943.99380016326904296875,376
251,1455475944.05468773841857910156,408
252,1455475944.11478590965270996094,496
253,1455475944.17405843734741210938,584
254,1455475944.23468828201293945312,608
255,1455475944.29581999778747558594,552
256,1455475944.3546600341796875,456
257,1455475944.41390538215637207031,384
258,1455475944.47502446174621582031,384
259,1455475944.53534030914306640625,456
260,1455475944.59470629692077636719,552
261,1455475944.65380239486694335938,608
262,1455475944.71412587165832519531,584
263,1455475944.77441430091857910156,496
264,1455475944.83537054061889648438,408
265,1455475944.8948764801025390625,376
266,1455475944.95481443405151367188,424
267,1455475945.01445102691650390625,520
268,1455475945.07378029823303222656,592
269,1455475945.13497948646545410156,608
270,1455475945.19404125213623046875,536
271,1455475945.25566720962524414062,440
272,1455475945.31414341926574707031,376
273,1455475945.37496447563171386719,392
274,1455475945.43530035018920898438,480
275,1455475945.49450802803039550781,568
276,1455475945.55565786361694335938,608
277,1455475945.61476540565490722656,576
278,1455475945.67465972900390625,480
279,1455475945.73516893386840820312,392
280,1455475945.79426622390747070312,376
281,1455475945.85466122627258300781,440
282,1455475945.91579771041870117188,536
283,1455475945.97421860694885253906,608
284,1455475946.0355682373046875,600
285,1455475946.09460783004760742188,520
286,1455475946.15498590469360351562,424
287,1455475946.214588165283203125,376
288,1455475946.27475881576538085938,400
289,1455475946.33688592910766601562,496
290,1455475946.39404153823852539062,584
291,1455475946.45490860939025878906,608
292,1455475946.51481509208679199219,560
293,1455475946.57497382164001464844,456
294,1455475946.63510370254516601562,384
295,1455475946.69462180137634277344,384
296,1455475946.75482916831970214844,456
297,1455475946.81498694419860839844,552
298,1455475946.87468647956848144531,608
299,1455475946.93688082695007324219,584
300,1455475946.9941196441650390625,504
301,1455475947.05411672592163085938,408
302,1455475947.11538195610046386719,376
303,1455475947.17435860633850097656,416
304,1455475947.23485350608825683594,512
305,1455475947.29412078857421875,592
306,1455475947.35441660881042480469,608
307,1455475947.41433238983154296875,544
308,1455475947.4738025665283203125,440
309,1455475947.53477358818054199219,376
310,1455475947.59438109397888183594,392
311,1455475947.65411305427551269531,472
312,1455475947.71403908729553222656,568
313,1455475947.77481174468994140625,608
314,1455475947.83506178855895996094,576
315,1455475947.89476132392883300781,480
316,1455475947.95395421981811523438,400
317,1455475948.01409935951232910156,376
318,1455475948.07459688186645507812,432
319,1455475948.13496470451354980469,528
320,1455475948.19446825981140136719,600
321,1455475948.25464367866516113281,600
322,1455475948.31487512588500976562,520
323,1455475948.37447714805603027344,424
324,1455475948.43462896347045898438,376
325,1455475948.49429011344909667969,400
326,1455475948.55479884147644042969,488
327,1455475948.61431050300598144531,584
328,1455475948.67458486557006835938,608
329,1455475948.73533010482788085938,560
330,1455475948.79440903663635253906,464
331,1455475948.8549022674560546875,384
332,1455475948.91619038581848144531,384
333,1455475948.97383069992065429688,448
334,1455475949.03623247146606445312,552
335,1455475949.09517168998718261719,608
336,1455475949.15432238578796386719,592
337,1455475949.21413087844848632812,504
338,1455475949.27432084083557128906,408
339,1455475949.33470463752746582031,376
340,1455475949.39461755752563476562,416
341,1455475949.45410466194152832031,512
342,1455475949.5151882171630859375,592
343,1455475949.574817657470703125,608
344,1455475949.63518261909484863281,544
345,1455475949.69410181045532226562,448
346,1455475949.75470280647277832031,376
347,1455475949.81416034698486328125,384
348,1455475949.87407374382019042969,464
349,1455475949.935092926025390625,568
350,1455475949.99399065971374511719,608
351,1455475950.05466938018798828125,576
352,1455475950.113880157470703125,608
353,1455475950.17490983009338378906,568
354,1455475950.23525190353393554688,472
355,1455475950.29504799842834472656,392
356,1455475950.35454702377319335938,376
357,1455475950.41464495658874511719,440
358,1455475950.47462129592895507812,544
359,1455475950.53478741645812988281,608
360,1455475950.59487557411193847656,592
361,1455475950.65459418296813964844,512
362,1455475950.71420311927795410156,416
363,1455475950.77496004104614257812,376
364,1455475950.83491182327270507812,408
365,1455475950.89475917816162109375,504
366,1455475950.95386219024658203125,584
367,1455475951.01485729217529296875,608
368,1455475951.07378053665161132812,552
369,1455475951.13462114334106445312,456
370,1455475951.19401717185974121094,384
371,1455475951.25427961349487304688,384
372,1455475951.31416845321655273438,456
373,1455475951.37450432777404785156,560
374,1455475951.43593597412109375,608
375,1455475951.49467492103576660156,584
376,1455475951.55452585220336914062,496
377,1455475951.61503148078918457031,400
378,1455475951.67388010025024414062,376
379,1455475951.73541355133056640625,424
380,1455475951.79572796821594238281,520
381,1455475951.85477709770202636719,600
382,1455475951.9144611358642578125,608
383,1455475951.97624230384826660156,528
384,1455475952.03581070899963378906,432
385,1455475952.09476780891418457031,376
386,1455475952.15421247482299804688,392
387,1455475952.21473932266235351562,480
388,1455475952.27636456489562988281,576
389,1455475952.33515858650207519531,608
390,1455475952.39446115493774414062,568
391,1455475952.45419740676879882812,472
392,1455475952.51410841941833496094,392
393,1455475952.57433032989501953125,376
394,1455475952.6357879638671875,440
395,1455475952.69414806365966796875,536
396,1455475952.754772186279296875,608
397,1455475952.81439256668090820312,600
398,1455475952.875041961669921875,512
399,1455475952.9354877471923828125,416
400,1455475952.99396944046020507812,376
401,1455475953.0545330047607421875,408
402,1455475953.11474537849426269531,496
403,1455475953.17432093620300292969,584
404,1455475953.23538088798522949219,608
405,1455475953.29505109786987304688,552
406,1455475953.35479187965393066406,456
407,1455475953.4143238067626953125,384
408,1455475953.47470951080322265625,384
409,1455475953.53476595878601074219,456
410,1455475953.59476041793823242188,552
411,1455475953.65504193305969238281,608
412,1455475953.71430063247680664062,584
413,1455475953.77451872825622558594,496
414,1455475953.83493518829345703125,408
415,1455475953.89441180229187011719,376
416,1455475953.95475625991821289062,424
417,1455475954.01467347145080566406,520
418,1455475954.07498836517333984375,600
419,1455475954.13552641868591308594,608
420,1455475954.19465160369873046875,536
421,1455475954.25451827049255371094,440
422,1455475954.31452322006225585938,376
423,1455475954.37463521957397460938,392
424,1455475954.43520426750183105469,480
425,1455475954.49472475051879882812,568
426,1455475954.5542049407958984375,608
427,1455475954.61465954780578613281,576
428,1455475954.67422389984130859375,480
429,1455475954.73531603813171386719,392
430,1455475954.79455494880676269531,376
431,1455475954.85634851455688476562,440
432,1455475954.91485595703125,536
433,1455475954.97454214096069335938,608
434,1455475955.03515744209289550781,600
435,1455475955.09473562240600585938,520
436,1455475955.15420818328857421875,424
437,1455475955.21419024467468261719,376
438,1455475955.27446460723876953125,400
439,1455475955.33497500419616699219,496
440,1455475955.39441061019897460938,584
441,1455475955.45442342758178710938,608
442,1455475955.51486253738403320312,560
443,1455475955.57525038719177246094,456
444,1455475955.6357669830322265625,384
445,1455475955.69448542594909667969,384
446,1455475955.75482153892517089844,456
447,1455475955.81454181671142578125,552
448,1455475955.87392687797546386719,608
449,1455475955.93515682220458984375,584
450,1455475955.99422430992126464844,504
451,1455475956.05493021011352539062,408
452,1455475956.11435008049011230469,376
453,1455475956.17463636398315429688,416
454,1455475956.23549890518188476562,512
455,1455475956.29430460929870605469,592
456,1455475956.35458993911743164062,608
457,1455475956.41437077522277832031,544
458,1455475956.47418189048767089844,440
459,1455475956.53566193580627441406,376
460,1455475956.59394192695617675781,392
461,1455475956.6548213958740234375,472
462,1455475956.71454954147338867188,568
463,1455475956.77396392822265625,608
464,1455475956.83512043952941894531,576
465,1455475956.89380621910095214844,480
466,1455475956.95409917831420898438,400
467,1455475957.0141620635986328125,376
468,1455475957.07506918907165527344,432
469,1455475957.1347217559814453125,528
470,1455475957.19430112838745117188,600
471,1455475957.25468420982360839844,600
472,1455475957.31395435333251953125,528
473,1455475957.37462520599365234375,424
474,1455475957.43551468849182128906,376
475,1455475957.49453711509704589844,400
476,1455475957.5546436309814453125,488
477,1455475957.61612987518310546875,584
478,1455475957.67448306083679199219,608
479,1455475957.73514389991760253906,560
480,1455475957.7942256927490234375,464
481,1455475957.85429620742797851562,384
482,1455475957.91484522819519042969,376
483,1455475957.97418999671936035156,448
484,1455475958.03472375869750976562,552
485,1455475958.09421873092651367188,608
486,1455475958.15403079986572265625,592
487,1455475958.21422076225280761719,504
488,1455475958.27873182296752929688,408
489,1455475958.33522510528564453125,376
490,1455475958.39590144157409667969,416
491,1455475958.45461869239807128906,512
492,1455475958.51441884040832519531,592
493,1455475958.57480573654174804688,608
494,1455475958.63496279716491699219,544
495,1455475958.69451498985290527344,448
496,1455475958.75471615791320800781,376
497,1455475958.81392002105712890625,384
498,1455475958.87626695632934570312,472
499,1455475958.9356555938720703125,568
500,1455475958.99472904205322265625,608
501,1455475959.05426740646362304688,576
502,1455475959.11598825454711914062,608
503,1455475959.17520284652709960938,568
