id, time (s), size (bits)
0,1455475928.25628232955932617188,384
1,1455475928.31643366813659667969,464
2,1455475928.37683892250061035156,560
3,1455475928.43688988685607910156,608
4,1455475928.49658894538879394531,584
5,1455475928.55680727958679199219,488
6,1455475928.61675000190734863281,400
7,1455475928.67656683921813964844,376
8,1455475928.73636984825134277344,424
9,1455475928.79646778106689453125,520
10,1455475928.85650515556335449219,600
11,1455475928.91652536392211914062,600
12,1455475928.97638821601867675781,528
13,1455475929.03702950477600097656,432
14,1455475929.09656929969787597656,376
15,1455475929.1563434600830078125,392
16,1455475929.21575784683227539062,480
17,1455475929.27645516395568847656,576
18,1455475929.33607459068298339844,608
19,1455475929.39694523811340332031,568
20,1455475929.45690655708312988281,472
21,1455475929.51690697669982910156,392
22,1455475929.57648873329162597656,376
23,1455475929.63643932342529296875,440
24,1455475929.69678497314453125,544
25,1455475929.75603747367858886719,608
26,1455475929.81678128242492675781,592
27,1455475929.8759975433349609375,512
28,1455475929.93783497810363769531,416
29,1455475929.99713587760925292969,376
30,1455475930.05673980712890625,408
31,1455475930.115970611572265625,504
32,1455475930.17654561996459960938,584
33,1455475930.23615503311157226562,608
34,1455475930.29676032066345214844,552
35,1455475930.35853338241577148438,448
36,1455475930.41620779037475585938,384
37,1455475930.47768473625183105469,384
38,1455475930.53591871261596679688,456
39,1455475930.59758758544921875,560
40,1455475930.65655016899108886719,608
41,1455475930.71596527099609375,584
42,1455475930.77757382392883300781,496
43,1455475930.83686375617980957031,400
44,1455475930.89659714698791503906,376
45,1455475930.95669603347778320312,424
46,1455475931.01618814468383789062,520
47,1455475931.07648706436157226562,600
48,1455475931.13628649711608886719,608
49,1455475931.19785904884338378906,536
50,1455475931.25670886039733886719,432
51,1455475931.31765818595886230469,376
52,1455475931.37630796432495117188,392
53,1455475931.43571496009826660156,480
54,1455475931.497364044189453125,576
55,1455475931.55652594566345214844,608
56,1455475931.61797809600830078125,568
57,1455475931.67631244659423828125,472
58,1455475931.73581194877624511719,392
59,1455475931.798511505126953125,376
60,1455475931.85637021064758300781,440
61,1455475931.9163665771484375,536
62,1455475931.97681140899658203125,608
63,1455475932.03782701492309570312,552
64,1455475932.09653258323669433594,608
65,1455475932.15825104713439941406,584
66,1455475932.21587586402893066406,504
67,1455475932.27635955810546875,408
68,1455475932.3365306854248046875,376
69,1455475932.39690089225769042969,416
70,1455475932.45715808868408203125,512
71,1455475932.5168743133544921875,592
72,1455475932.57811808586120605469,608
73,1455475932.63773512840270996094,536
74,1455475932.69722199440002441406,440
75,1455475932.75646090507507324219,376
76,1455475932.81597900390625,392
77,1455475932.8759593963623046875,472
78,1455475932.93641352653503417969,568
79,1455475932.99679636955261230469,608
80,1455475933.05639290809631347656,576
81,1455475933.11652660369873046875,480
82,1455475933.17576909065246582031,400
83,1455475933.236568450927734375,376
84,1455475933.29774832725524902344,432
85,1455475933.355854034423828125,528
86,1455475933.41576147079467773438,600
87,1455475933.47643256187438964844,600
88,1455475933.53648328781127929688,528
89,1455475933.59639787673950195312,424
90,1455475933.65637803077697753906,376
91,1455475933.71744656562805175781,400
92,1455475933.77581167221069335938,488
93,1455475933.83637094497680664062,584
94,1455475933.89705061912536621094,608
95,1455475933.95652318000793457031,560
96,1455475934.01592397689819335938,464
97,1455475934.07657766342163085938,384
98,1455475934.13592028617858886719,376
99,1455475934.19709157943725585938,448
100,1455475934.25824093818664550781,552
101,1455475934.31713438034057617188,608
102,1455475934.37581372261047363281,592
103,1455475934.43708658218383789062,504
104,1455475934.49689960479736328125,408
105,1455475934.55742931365966796875,376
106,1455475934.61597132682800292969,416
107,1455475934.67880940437316894531,512
108,1455475934.73619365692138671875,592
109,1455475934.79696440696716308594,608
110,1455475934.85675811767578125,544
111,1455475934.91650485992431640625,448
112,1455475934.97773504257202148438,376
113,1455475935.03702211380004882812,392
114,1455475935.09704065322875976562,472
115,1455475935.15636849403381347656,560
116,1455475935.216777801513671875,608
117,1455475935.27654623985290527344,576
118,1455475935.33723855018615722656,488
119,1455475935.3981170654296875,400
120,1455475935.45637440681457519531,376
121,1455475935.51830935478210449219,432
122,1455475935.5769901275634765625,528
123,1455475935.63654160499572753906,600
124,1455475935.69691348075866699219,600
125,1455475935.75620865821838378906,528
126,1455475935.81778597831726074219,424
127,1455475935.87667751312255859375,376
128,1455475935.93605518341064453125,400
129,1455475935.99672174453735351562,488
130,1455475936.05620646476745605469,576
131,1455475936.11689448356628417969,608
132,1455475936.17665886878967285156,568
133,1455475936.23818278312683105469,464
134,1455475936.29692292213439941406,384
135,1455475936.3573322296142578125,376
136,1455475936.41642284393310546875,448
137,1455475936.47628855705261230469,544
138,1455475936.53671693801879882812,608
139,1455475936.59712553024291992188,592
140,1455475936.65779781341552734375,504
141,1455475936.71638083457946777344,416
142,1455475936.77640604972839355469,376
143,1455475936.836681365966796875,408
144,1455475936.8970470428466796875,504
145,1455475936.95693182945251464844,592
146,1455475937.01606845855712890625,608
147,1455475937.078166961669921875,544
148,1455475937.13653230667114257812,448
149,1455475937.19768834114074707031,376
150,1455475937.25811266899108886719,384
151,1455475937.31612300872802734375,464
152,1455475937.37663865089416503906,560
153,1455475937.43623208999633789062,608
154,1455475937.49997711181640625,576
155,1455475937.55641484260559082031,488
156,1455475937.61783576011657714844,400
157,1455475937.67652440071105957031,376
158,1455475937.73681473731994628906,424
159,1455475937.79731440544128417969,528
160,1455475937.856098175048828125,600
161,1455475937.91753530502319335938,600
162,1455475937.97678112983703613281,528
163,1455475938.03622126579284667969,432
164,1455475938.09742951393127441406,376
165,1455475938.15628838539123535156,392
166,1455475938.21577882766723632812,480
167,1455475938.27637696266174316406,576
168,1455475938.3360652923583984375,608
169,1455475938.39652848243713378906,568
170,1455475938.45669627189636230469,472
171,1455475938.51610326766967773438,392
172,1455475938.57600140571594238281,376
173,1455475938.63639521598815917969,440
174,1455475938.69706177711486816406,544
175,1455475938.75857138633728027344,608
176,1455475938.81644415855407714844,592
177,1455475938.87658548355102539062,512
178,1455475938.93634915351867675781,416
179,1455475938.99687623977661132812,376
180,1455475939.05696702003479003906,408
181,1455475939.11665320396423339844,504
182,1455475939.17745447158813476562,592
183,1455475939.23604369163513183594,608
184,1455475939.29680609703063964844,552
185,1455475939.35653591156005859375,456
186,1455475939.4161529541015625,384
187,1455475939.47661471366882324219,384
188,1455475939.53612041473388671875,456
189,1455475939.59872770309448242188,560
190,1455475939.65678262710571289062,608
191,1455475939.7163448333740234375,584
192,1455475939.77594995498657226562,496
193,1455475939.83666014671325683594,400
194,1455475939.89735174179077148438,376
195,1455475939.95685839653015136719,424
196,1455475940.01827740669250488281,520
197,1455475940.07659053802490234375,600
198,1455475940.13573884963989257812,608
199,1455475940.19735789299011230469,536
200,1455475940.25644254684448242188,440
201,1455475940.31657457351684570312,376
202,1455475940.37636804580688476562,392
203,1455475940.437412261962890625,480
204,1455475940.4970531463623046875,576
205,1455475940.5578765869140625,608
206,1455475940.61650538444519042969,568
207,1455475940.67648267745971679688,472
208,1455475940.73646450042724609375,392
209,1455475940.79672598838806152344,376
210,1455475940.85688829421997070312,440
211,1455475940.916271209716796875,536
212,1455475940.97850084304809570312,608
213,1455475941.03649353981018066406,552
214,1455475941.09721088409423828125,608
215,1455475941.15663075447082519531,592
216,1455475941.21638178825378417969,504
217,1455475941.27813887596130371094,408
218,1455475941.33651494979858398438,376
219,1455475941.39812016487121582031,416
220,1455475941.45633745193481445312,512
221,1455475941.51686453819274902344,592
222,1455475941.57695150375366210938,608
223,1455475941.63695478439331054688,544
224,1455475941.69770932197570800781,440
225,1455475941.75620484352111816406,376
226,1455475941.81581592559814453125,392
227,1455475941.87643122673034667969,472
228,1455475941.93647527694702148438,568
229,1455475941.99745607376098632812,608
230,1455475942.05649828910827636719,576
231,1455475942.11633729934692382812,480
232,1455475942.17581820487976074219,400
233,1455475942.23652553558349609375,376
234,1455475942.29747724533081054688,432
235,1455475942.35686397552490234375,528
236,1455475942.41628408432006835938,600
237,1455475942.47643828392028808594,600
238,1455475942.53592205047607421875,528
239,1455475942.59746122360229492188,424
240,1455475942.65645694732666015625,376
241,1455475942.71611428260803222656,400
242,1455475942.77598977088928222656,488
243,1455475942.83606982231140136719,584
244,1455475942.89732146263122558594,608
245,1455475942.9579925537109375,560
246,1455475943.01648688316345214844,464
247,1455475943.07624006271362304688,384
248,1455475943.13600420951843261719,376
249,1455475943.19663405418395996094,448
250,1455475943.25792837142944335938,552
251,1455475943.31777191162109375,608
252,1455475943.37651896476745605469,592
253,1455475943.43656229972839355469,504
254,1455475943.49748635292053222656,408
255,1455475943.55661296844482421875,376
256,1455475943.61664700508117675781,416
257,1455475943.67616772651672363281,504
258,1455475943.73636364936828613281,592
259,1455475943.79692602157592773438,608
260,1455475943.85640192031860351562,544
261,1455475943.91681337356567382812,448
262,1455475943.97574377059936523438,376
263,1455475944.03648996353149414062,384
264,1455475944.09745240211486816406,472
265,1455475944.15694642066955566406,568
266,1455475944.21803641319274902344,608
267,1455475944.27634572982788085938,576
268,1455475944.33622860908508300781,488
269,1455475944.39700770378112792969,400
270,1455475944.45582270622253417969,376
271,1455475944.51627826690673828125,432
272,1455475944.57683634757995605469,528
273,1455475944.63847017288208007812,600
274,1455475944.69726014137268066406,600
275,1455475944.7586231231689453125,528
276,1455475944.81603956222534179688,432
277,1455475944.87646651268005371094,376
278,1455475944.93629717826843261719,400
279,1455475944.99684572219848632812,488
280,1455475945.05763220787048339844,576
281,1455475945.11604738235473632812,608
282,1455475945.17595171928405761719,568
283,1455475945.23678636550903320312,464
284,1455475945.29685139656066894531,384
285,1455475945.356536865234375,376
286,1455475945.41700196266174316406,448
287,1455475945.47799086570739746094,544
288,1455475945.53619837760925292969,608
289,1455475945.59709835052490234375,592
290,1455475945.65673351287841796875,512
291,1455475945.7166805267333984375,416
292,1455475945.77683925628662109375,376
293,1455475945.83674883842468261719,408
294,1455475945.89872050285339355469,512
295,1455475945.95702266693115234375,592
296,1455475946.01621460914611816406,608
297,1455475946.0760402679443359375,552
298,1455475946.13655877113342285156,448
299,1455475946.1970157623291015625,376
300,1455475946.25622916221618652344,384
301,1455475946.31847238540649414062,464
302,1455475946.37699913978576660156,560
303,1455475946.43663477897644042969,608
304,1455475946.49644255638122558594,584
305,1455475946.55657744407653808594,488
306,1455475946.61664128303527832031,400
307,1455475946.67686533927917480469,376
308,1455475946.73660111427307128906,424
309,1455475946.79695820808410644531,528
310,1455475946.85585522651672363281,600
311,1455475946.91643452644348144531,600
312,1455475946.97600603103637695312,536
313,1455475947.03673529624938964844,432
314,1455475947.097259521484375,376
315,1455475947.15849900245666503906,400
316,1455475947.215961456298828125,480
317,1455475947.27627086639404296875,576
318,1455475947.33642458915710449219,608
319,1455475947.39825487136840820312,568
320,1455475947.45616936683654785156,472
321,1455475947.51706719398498535156,392
322,1455475947.57748126983642578125,376
323,1455475947.63619661331176757812,440
324,1455475947.6971836090087890625,544
325,1455475947.75668096542358398438,608
326,1455475947.81625652313232421875,592
327,1455475947.87651276588439941406,512
328,1455475947.93607878684997558594,416
329,1455475947.99822378158569335938,376
330,1455475948.05644440650939941406,408
331,1455475948.11876082420349121094,504
332,1455475948.17611956596374511719,584
333,1455475948.2358722686767578125,608
334,1455475948.29700922966003417969,552
335,1455475948.35629582405090332031,456
336,1455475948.41776418685913085938,384
337,1455475948.47684264183044433594,384
338,1455475948.53631258010864257812,456
339,1455475948.59654736518859863281,560
340,1455475948.65632295608520507812,608
341,1455475948.71677803993225097656,584
342,1455475948.77584600448608398438,496
343,1455475948.8378429412841796875,400
344,1455475948.89749121665954589844,376
345,1455475948.95815110206604003906,424
346,1455475949.01636528968811035156,520
347,1455475949.07628464698791503906,600
348,1455475949.13648390769958496094,608
349,1455475949.19701051712036132812,536
350,1455475949.25782251358032226562,432
351,1455475949.31655716896057128906,376
352,1455475949.37809038162231445312,392
353,1455475949.43677949905395507812,480
354,1455475949.49687600135803222656,576
355,1455475949.55614209175109863281,608
356,1455475949.61674451828002929688,568
357,1455475949.67804598808288574219,472
358,1455475949.7362117767333984375,392
359,1455475949.79881143569946289062,376
360,1455475949.85612082481384277344,440
361,1455475949.91673803329467773438,536
362,1455475949.97584080696105957031,608
363,1455475950.03694581985473632812,552
364,1455475950.09731531143188476562,608
365,1455475950.15621924400329589844,592
366,1455475950.21576523780822753906,504
367,1455475950.27651214599609375,408
368,1455475950.33597564697265625,376
369,1455475950.39703297615051269531,416
370,1455475950.4567127227783203125,512
371,1455475950.51735091209411621094,592
372,1455475950.57608103752136230469,608
373,1455475950.63752460479736328125,544
374,1455475950.69647765159606933594,440
375,1455475950.75678801536560058594,376
376,1455475950.81685781478881835938,392
377,1455475950.87633633613586425781,472
378,1455475950.93767595291137695312,568
379,1455475950.99771642684936523438,608
380,1455475951.05836200714111328125,576
381,1455475951.11598300933837890625,480
382,1455475951.17652583122253417969,400
383,1455475951.23645114898681640625,376
384,1455475951.29688239097595214844,432
385,1455475951.35704731941223144531,528
386,1455475951.41657161712646484375,600
387,1455475951.47826385498046875,600
388,1455475951.53589367866516113281,528
389,1455475951.59662485122680664062,424
390,1455475951.65680050849914550781,376
391,1455475951.71646571159362792969,400
392,1455475951.777477264404296875,488
393,1455475951.83666491508483886719,584
394,1455475951.89878487586975097656,608
395,1455475951.95751833915710449219,560
396,1455475952.0167236328125,464
397,1455475952.07683849334716796875,384
398,1455475952.13708662986755371094,376
399,1455475952.19653725624084472656,448
400,1455475952.25574016571044921875,544
401,1455475952.31613636016845703125,608
402,1455475952.37640786170959472656,592
403,1455475952.43662619590759277344,504
404,1455475952.49754571914672851562,408
405,1455475952.55665159225463867188,376
406,1455475952.617584228515625,416
407,1455475952.67620229721069335938,512
408,1455475952.73602724075317382812,592
409,1455475952.79740500450134277344,608
410,1455475952.85810327529907226562,544
411,1455475952.91706418991088867188,448
412,1455475952.97675681114196777344,376
413,1455475953.03700780868530273438,392
414,1455475953.09740996360778808594,472
415,1455475953.15607857704162597656,560
416,1455475953.21584224700927734375,608
417,1455475953.276546478271484375,576
418,1455475953.33682036399841308594,488
419,1455475953.39731740951538085938,400
420,1455475953.45795559883117675781,376
421,1455475953.51595664024353027344,432
422,1455475953.57596254348754882812,528
423,1455475953.63690543174743652344,600
424,1455475953.69680953025817871094,600
425,1455475953.75666737556457519531,528
426,1455475953.81668496131896972656,432
427,1455475953.87787008285522460938,376
428,1455475953.93617987632751464844,400
429,1455475953.99684691429138183594,488
430,1455475954.05613827705383300781,576
431,1455475954.11861014366149902344,608
432,1455475954.17626953125,568
433,1455475954.23615217208862304688,472
434,1455475954.29839110374450683594,384
435,1455475954.35650968551635742188,376
436,1455475954.4181804656982421875,448
437,1455475954.47690153121948242188,544
438,1455475954.535945892333984375,608
439,1455475954.5973873138427734375,592
440,1455475954.65671229362487792969,512
441,1455475954.71785378456115722656,416
442,1455475954.77619338035583496094,376
443,1455475954.83606815338134765625,408
444,1455475954.89839673042297363281,512
445,1455475954.95672869682312011719,592
446,1455475955.01619625091552734375,608
447,1455475955.07651090621948242188,552
448,1455475955.13834333419799804688,448
449,1455475955.1981296539306640625,376
450,1455475955.25673699378967285156,384
451,1455475955.31663966178894042969,464
452,1455475955.37639617919921875,560
453,1455475955.4364261627197265625,608
454,1455475955.4967441558837890625,584
455,1455475955.55762505531311035156,488
456,1455475955.61627697944641113281,400
457,1455475955.67811822891235351562,376
458,1455475955.73641347885131835938,424
459,1455475955.79689002037048339844,520
460,1455475955.85648036003112792969,600
461,1455475955.91683411598205566406,600
462,1455475955.97742724418640136719,528
463,1455475956.03694558143615722656,432
464,1455475956.09678745269775390625,376
465,1455475956.15652179718017578125,392
466,1455475956.21617674827575683594,480
467,1455475956.27629208564758300781,576
468,1455475956.33607125282287597656,608
469,1455475956.39920306205749511719,560
470,1455475956.45679831504821777344,472
471,1455475956.51644563674926757812,392
472,1455475956.57693767547607421875,376
473,1455475956.63659906387329101562,440
474,1455475956.69707775115966796875,544
475,1455475956.75678038597106933594,608
476,1455475956.81771707534790039062,592
477,1455475956.87597417831420898438,512
478,1455475956.93645119667053222656,416
479,1455475956.9969501495361328125,376
480,1455475957.05649352073669433594,408
481,1455475957.1160755157470703125,504
482,1455475957.17651772499084472656,584
483,1455475957.23776531219482421875,608
484,1455475957.29742074012756347656,552
485,1455475957.35719394683837890625,456
486,1455475957.41668581962585449219,384
487,1455475957.47689604759216308594,384
488,1455475957.53608012199401855469,456
489,1455475957.60388898849487304688,568
490,1455475957.65794515609741210938,608
491,1455475957.71795868873596191406,584
492,1455475957.77617502212524414062,496
493,1455475957.8363971710205078125,400
494,1455475957.89643192291259765625,376
495,1455475957.95621633529663085938,424
496,1455475958.01690030097961425781,520
497,1455475958.07595539093017578125,600
498,1455475958.13649582862854003906,608
499,1455475958.19698405265808105469,536
500,1455475958.2559604644775390625,440
501,1455475958.31620097160339355469,376
502,1455475958.37667965888977050781,392
503,1455475958.43653988838195800781,480
504,1455475958.49702787399291992188,576
