id, time (s), size (bits)
0,1455475928.98382329940795898438,520
1,1455475929.03423070907592773438,440
2,1455475929.08354449272155761719,384
3,1455475929.13376379013061523438,376
4,1455475929.18464136123657226562,432
5,1455475929.23460268974304199219,512
6,1455475929.28396439552307128906,584
7,1455475929.33451199531555175781,608
8,1455475929.38395857810974121094,584
9,1455475929.43351197242736816406,512
10,1455475929.48421478271484375,432
11,1455475929.5336894989013671875,376
12,1455475929.58392763137817382812,384
13,1455475929.63461852073669433594,440
14,1455475929.68391203880310058594,520
15,1455475929.73444032669067382812,592
16,1455475929.78412151336669921875,608
17,1455475929.83412718772888183594,576
18,1455475929.88371706008911132812,504
19,1455475929.93424081802368164062,424
20,1455475929.98448586463928222656,376
21,1455475930.03370141983032226562,384
22,1455475930.08457398414611816406,448
23,1455475930.13460612297058105469,528
24,1455475930.18403291702270507812,592
25,1455475930.23407196998596191406,608
26,1455475930.28438997268676757812,568
27,1455475930.33446216583251953125,488
28,1455475930.3838596343994140625,416
29,1455475930.43446302413940429688,376
30,1455475930.48431396484375,392
31,1455475930.5345630645751953125,456
32,1455475930.58477663993835449219,544
33,1455475930.63350653648376464844,600
34,1455475930.68411540985107421875,608
35,1455475930.73475503921508789062,560
36,1455475930.78430771827697753906,480
37,1455475930.83390831947326660156,408
38,1455475930.88435339927673339844,376
39,1455475930.93344712257385253906,392
40,1455475930.98434495925903320312,464
41,1455475931.03451895713806152344,552
42,1455475931.08401083946228027344,600
43,1455475931.13425922393798828125,608
44,1455475931.18351674079895019531,552
45,1455475931.23398685455322265625,472
46,1455475931.28466534614562988281,400
47,1455475931.33440351486206054688,376
48,1455475931.384624481201171875,400
49,1455475931.43405866622924804688,472
50,1455475931.4845142364501953125,560
51,1455475931.53367090225219726562,608
52,1455475931.58431077003479003906,600
53,1455475931.63374829292297363281,544
54,1455475931.68368005752563476562,464
55,1455475931.73478055000305175781,392
56,1455475931.78387331962585449219,376
57,1455475931.83358430862426757812,408
58,1455475931.88370609283447265625,480
59,1455475931.93399572372436523438,560
60,1455475931.98430681228637695312,608
61,1455475932.03426885604858398438,544
62,1455475932.08383226394653320312,600
63,1455475932.13449168205261230469,608
64,1455475932.18374228477478027344,552
65,1455475932.23397159576416015625,472
66,1455475932.28372240066528320312,400
67,1455475932.33432936668395996094,376
68,1455475932.38423562049865722656,400
69,1455475932.43347024917602539062,472
70,1455475932.48398494720458984375,552
71,1455475932.53469514846801757812,608
72,1455475932.585391998291015625,600
73,1455475932.6338939666748046875,544
74,1455475932.6835651397705078125,464
75,1455475932.7335987091064453125,392
76,1455475932.78423452377319335938,376
77,1455475932.83361363410949707031,408
78,1455475932.88359737396240234375,480
79,1455475932.93407344818115234375,560
80,1455475932.984466552734375,608
81,1455475933.03403067588806152344,600
82,1455475933.08393692970275878906,536
83,1455475933.13448667526245117188,456
84,1455475933.18381643295288085938,392
85,1455475933.23379635810852050781,376
86,1455475933.28420686721801757812,416
87,1455475933.3345928192138671875,496
88,1455475933.3839206695556640625,568
89,1455475933.43441510200500488281,608
90,1455475933.4841976165771484375,592
91,1455475933.53453230857849121094,528
92,1455475933.58358359336853027344,448
93,1455475933.63455128669738769531,384
94,1455475933.68364882469177246094,376
95,1455475933.73412990570068359375,424
96,1455475933.78452181816101074219,504
97,1455475933.83398389816284179688,576
98,1455475933.88371253013610839844,608
99,1455475933.93402314186096191406,592
100,1455475933.98429203033447265625,520
101,1455475934.03396534919738769531,440
102,1455475934.08408641815185546875,384
103,1455475934.13464379310607910156,376
104,1455475934.18452405929565429688,432
105,1455475934.23444485664367675781,512
106,1455475934.28472948074340820312,584
107,1455475934.33388257026672363281,608
108,1455475934.38437032699584960938,584
109,1455475934.43454527854919433594,512
110,1455475934.48433375358581542969,424
111,1455475934.53419351577758789062,376
112,1455475934.58410501480102539062,384
113,1455475934.63470220565795898438,440
114,1455475934.68425202369689941406,520
115,1455475934.73429584503173828125,592
116,1455475934.78423619270324707031,608
117,1455475934.83357167243957519531,576
118,1455475934.88477063179016113281,496
119,1455475934.93493676185607910156,416
120,1455475934.98412156105041503906,376
121,1455475935.03416872024536132812,384
122,1455475935.084613800048828125,448
123,1455475935.13558411598205566406,536
124,1455475935.18412232398986816406,592
125,1455475935.23394036293029785156,608
126,1455475935.28439831733703613281,568
127,1455475935.33459758758544921875,488
128,1455475935.38445949554443359375,416
129,1455475935.43457937240600585938,376
130,1455475935.48413324356079101562,392
131,1455475935.5343151092529296875,456
132,1455475935.58400893211364746094,536
133,1455475935.63436126708984375,600
134,1455475935.68474364280700683594,608
135,1455475935.73397803306579589844,560
136,1455475935.7841892242431640625,480
137,1455475935.83434748649597167969,408
138,1455475935.8837375640869140625,376
139,1455475935.93423676490783691406,392
140,1455475935.98423075675964355469,464
141,1455475936.03431987762451171875,544
142,1455475936.08442330360412597656,600
143,1455475936.13437223434448242188,608
144,1455475936.18447780609130859375,552
145,1455475936.23505759239196777344,472
146,1455475936.283519744873046875,400
147,1455475936.33445215225219726562,376
148,1455475936.38374233245849609375,400
149,1455475936.43431806564331054688,472
150,1455475936.48447275161743164062,560
151,1455475936.53411436080932617188,608
152,1455475936.58423447608947753906,600
153,1455475936.635040283203125,544
154,1455475936.68440914154052734375,464
155,1455475936.73411083221435546875,392
156,1455475936.78385639190673828125,376
157,1455475936.83411526679992675781,408
158,1455475936.88447546958923339844,488
159,1455475936.93412661552429199219,560
160,1455475936.98448610305786132812,608
161,1455475937.03462719917297363281,600
162,1455475937.08389258384704589844,536
163,1455475937.1344470977783203125,456
164,1455475937.18349051475524902344,392
165,1455475937.23440766334533691406,376
166,1455475937.28441619873046875,416
167,1455475937.33349061012268066406,496
168,1455475937.38511419296264648438,576
169,1455475937.43403315544128417969,608
170,1455475937.48409676551818847656,592
171,1455475937.53416943550109863281,528
172,1455475937.58396077156066894531,448
173,1455475937.63463497161865234375,384
174,1455475937.68394708633422851562,376
175,1455475937.73456263542175292969,424
176,1455475937.78404068946838378906,504
177,1455475937.83361649513244628906,576
178,1455475937.88411068916320800781,608
179,1455475937.93464183807373046875,584
180,1455475937.98404622077941894531,520
181,1455475938.03483104705810546875,432
182,1455475938.0842456817626953125,384
183,1455475938.13487505912780761719,376
184,1455475938.1845798492431640625,432
185,1455475938.23394560813903808594,512
186,1455475938.28455781936645507812,584
187,1455475938.3345737457275390625,608
188,1455475938.3839244842529296875,584
189,1455475938.433902740478515625,512
190,1455475938.48390865325927734375,432
191,1455475938.53489756584167480469,376
192,1455475938.58430218696594238281,384
193,1455475938.63351511955261230469,440
194,1455475938.68380284309387207031,520
195,1455475938.73436236381530761719,592
196,1455475938.78395533561706542969,608
197,1455475938.83457159996032714844,576
198,1455475938.88437533378601074219,496
199,1455475938.93400430679321289062,424
200,1455475938.98461699485778808594,376
201,1455475939.03406357765197753906,384
202,1455475939.08349084854125976562,448
203,1455475939.13453245162963867188,528
204,1455475939.18453526496887207031,592
205,1455475939.23412060737609863281,608
206,1455475939.28430843353271484375,568
207,1455475939.33438205718994140625,488
208,1455475939.38378858566284179688,416
209,1455475939.43457126617431640625,376
210,1455475939.48418784141540527344,392
211,1455475939.534099578857421875,456
212,1455475939.58352208137512207031,536
213,1455475939.63410782814025878906,600
214,1455475939.68396639823913574219,608
215,1455475939.73473310470581054688,560
216,1455475939.78405809402465820312,480
217,1455475939.83445096015930175781,408
218,1455475939.88406276702880859375,376
219,1455475939.934497833251953125,400
220,1455475939.98429274559020996094,464
221,1455475940.03387928009033203125,544
222,1455475940.08396220207214355469,600
223,1455475940.13462424278259277344,608
224,1455475940.18379449844360351562,552
225,1455475940.23451852798461914062,472
226,1455475940.28415632247924804688,400
227,1455475940.334445953369140625,376
228,1455475940.38417768478393554688,400
229,1455475940.43407344818115234375,472
230,1455475940.48379850387573242188,552
231,1455475940.53431081771850585938,608
232,1455475940.58434653282165527344,600
233,1455475940.6342296600341796875,544
234,1455475940.68409943580627441406,464
235,1455475940.73451852798461914062,392
236,1455475940.78461432456970214844,376
237,1455475940.83425140380859375,408
238,1455475940.8839511871337890625,480
239,1455475940.93649196624755859375,568
240,1455475940.98402357101440429688,608
241,1455475941.03438019752502441406,544
242,1455475941.08350825309753417969,600
243,1455475941.13374304771423339844,608
244,1455475941.18446612358093261719,552
245,1455475941.23419189453125,472
246,1455475941.28516697883605957031,400
247,1455475941.33488988876342773438,376
248,1455475941.3844451904296875,400
249,1455475941.43349695205688476562,472
250,1455475941.48374104499816894531,552
251,1455475941.53444147109985351562,608
252,1455475941.58392119407653808594,600
253,1455475941.63439440727233886719,544
254,1455475941.68354511260986328125,464
255,1455475941.73394942283630371094,392
256,1455475941.7845554351806640625,376
257,1455475941.83413219451904296875,408
258,1455475941.8838939666748046875,480
259,1455475941.93436717987060546875,560
260,1455475941.98451113700866699219,608
261,1455475942.034214019775390625,600
262,1455475942.08427906036376953125,536
263,1455475942.1348857879638671875,456
264,1455475942.18408608436584472656,392
265,1455475942.23387861251831054688,376
266,1455475942.28410243988037109375,416
267,1455475942.33402943611145019531,496
268,1455475942.38446855545043945312,568
269,1455475942.43419861793518066406,608
270,1455475942.4840717315673828125,592
271,1455475942.53397202491760253906,528
272,1455475942.58435392379760742188,448
273,1455475942.63451933860778808594,384
274,1455475942.6842060089111328125,376
275,1455475942.73392343521118164062,424
276,1455475942.78426647186279296875,504
277,1455475942.83464503288269042969,576
278,1455475942.88398265838623046875,608
279,1455475942.93497800827026367188,584
280,1455475942.98417210578918457031,520
281,1455475943.03437542915344238281,440
282,1455475943.08607172966003417969,376
283,1455475943.13361120223999023438,376
284,1455475943.18373942375183105469,432
285,1455475943.23384857177734375,512
286,1455475943.28438735008239746094,584
287,1455475943.33410286903381347656,608
288,1455475943.38448858261108398438,584
289,1455475943.43431711196899414062,512
290,1455475943.48379945755004882812,432
291,1455475943.53346610069274902344,376
292,1455475943.58479237556457519531,384
293,1455475943.63417267799377441406,440
294,1455475943.68436527252197265625,520
295,1455475943.73415112495422363281,592
296,1455475943.78441381454467773438,608
297,1455475943.83348560333251953125,576
298,1455475943.88435578346252441406,496
299,1455475943.93385171890258789062,424
300,1455475943.983997344970703125,376
301,1455475944.03454732894897460938,384
302,1455475944.08407664299011230469,448
303,1455475944.13441872596740722656,528
304,1455475944.18381476402282714844,592
305,1455475944.23397707939147949219,608
306,1455475944.2845554351806640625,568
307,1455475944.3335113525390625,488
308,1455475944.38426542282104492188,416
309,1455475944.43445038795471191406,376
310,1455475944.48359704017639160156,392
311,1455475944.53462648391723632812,456
312,1455475944.58414959907531738281,536
313,1455475944.63418912887573242188,600
314,1455475944.68470501899719238281,608
315,1455475944.73392701148986816406,560
316,1455475944.7842197418212890625,480
317,1455475944.83463978767395019531,408
318,1455475944.883808135986328125,376
319,1455475944.93453550338745117188,400
320,1455475944.98431754112243652344,464
321,1455475945.03443837165832519531,552
322,1455475945.08361840248107910156,600
323,1455475945.13413453102111816406,608
324,1455475945.18347191810607910156,552
325,1455475945.23406910896301269531,472
326,1455475945.28435945510864257812,400
327,1455475945.33516049385070800781,376
328,1455475945.38390278816223144531,400
329,1455475945.43457245826721191406,472
330,1455475945.48386549949645996094,552
331,1455475945.53411197662353515625,608
332,1455475945.58436727523803710938,600
333,1455475945.63441205024719238281,544
334,1455475945.68450093269348144531,464
335,1455475945.73445606231689453125,392
336,1455475945.78355336189270019531,376
337,1455475945.83397555351257324219,408
338,1455475945.88399863243103027344,480
339,1455475945.93347454071044921875,560
340,1455475945.9839229583740234375,608
341,1455475946.03472232818603515625,600
342,1455475946.08388662338256835938,536
343,1455475946.13446927070617675781,456
344,1455475946.18366861343383789062,392
345,1455475946.23407030105590820312,376
346,1455475946.28475046157836914062,416
347,1455475946.33608984947204589844,496
348,1455475946.38454198837280273438,568
349,1455475946.43403744697570800781,608
350,1455475946.48442864418029785156,592
351,1455475946.53472661972045898438,528
352,1455475946.58460474014282226562,448
353,1455475946.63427138328552246094,384
354,1455475946.68578386306762695312,376
355,1455475946.73413395881652832031,424
356,1455475946.78461575508117675781,504
357,1455475946.83394289016723632812,576
358,1455475946.88468456268310546875,608
359,1455475946.9344329833984375,592
360,1455475946.98413681983947753906,520
361,1455475947.03621387481689453125,432
362,1455475947.08458209037780761719,384
363,1455475947.13441252708435058594,376
364,1455475947.18410706520080566406,432
365,1455475947.23381590843200683594,512
366,1455475947.28441381454467773438,584
367,1455475947.33380913734436035156,608
368,1455475947.38442301750183105469,584
369,1455475947.43427681922912597656,512
370,1455475947.48360180854797363281,432
371,1455475947.534046173095703125,376
372,1455475947.58353018760681152344,384
373,1455475947.63414883613586425781,440
374,1455475947.68452286720275878906,520
375,1455475947.73353934288024902344,592
376,1455475947.78451585769653320312,608
377,1455475947.8341522216796875,576
378,1455475947.88372302055358886719,504
379,1455475947.93405175209045410156,424
380,1455475947.9845447540283203125,376
381,1455475948.0340900421142578125,384
382,1455475948.08435678482055664062,448
383,1455475948.13429093360900878906,528
384,1455475948.18465137481689453125,592
385,1455475948.23468184471130371094,608
386,1455475948.28426289558410644531,568
387,1455475948.33458685874938964844,488
388,1455475948.38428926467895507812,416
389,1455475948.43385481834411621094,376
390,1455475948.48407816886901855469,392
391,1455475948.534435272216796875,456
392,1455475948.58433508872985839844,536
393,1455475948.63453555107116699219,600
394,1455475948.68399953842163085938,608
395,1455475948.7343883514404296875,560
396,1455475948.783863067626953125,480
397,1455475948.83399415016174316406,408
398,1455475948.88463640213012695312,376
399,1455475948.93435072898864746094,392
400,1455475948.98456978797912597656,464
401,1455475949.0334796905517578125,544
402,1455475949.08396768569946289062,600
403,1455475949.13356518745422363281,608
404,1455475949.18455481529235839844,552
405,1455475949.23414540290832519531,472
406,1455475949.28415155410766601562,400
407,1455475949.33368277549743652344,376
408,1455475949.38397479057312011719,400
409,1455475949.43439507484436035156,472
410,1455475949.48382568359375,552
411,1455475949.53404164314270019531,608
412,1455475949.58468985557556152344,600
413,1455475949.63445448875427246094,544
414,1455475949.6842250823974609375,464
415,1455475949.73475766181945800781,392
416,1455475949.78445768356323242188,376
417,1455475949.83351731300354003906,408
418,1455475949.88358664512634277344,480
419,1455475949.93421983718872070312,560
420,1455475949.98357701301574707031,608
421,1455475950.03460001945495605469,552
422,1455475950.08421468734741210938,600
423,1455475950.1338863372802734375,608
424,1455475950.18349933624267578125,552
425,1455475950.2343196868896484375,472
426,1455475950.28405332565307617188,400
427,1455475950.33349728584289550781,376
428,1455475950.38381648063659667969,400
429,1455475950.43421506881713867188,472
430,1455475950.48448538780212402344,560
431,1455475950.53407335281372070312,608
432,1455475950.58523297309875488281,600
433,1455475950.63397765159606933594,544
434,1455475950.68437123298645019531,464
435,1455475950.73410892486572265625,392
436,1455475950.78442811965942382812,376
437,1455475950.83399653434753417969,408
438,1455475950.88401269912719726562,480
439,1455475950.93351793289184570312,560
440,1455475950.98486614227294921875,608
441,1455475951.0345020294189453125,600
442,1455475951.08469486236572265625,536
443,1455475951.1339359283447265625,456
444,1455475951.18438363075256347656,392
445,1455475951.23466467857360839844,376
446,1455475951.28353857994079589844,416
447,1455475951.33421230316162109375,496
448,1455475951.38426470756530761719,568
449,1455475951.43522024154663085938,608
450,1455475951.48422098159790039062,592
451,1455475951.53415226936340332031,528
452,1455475951.58392095565795898438,448
453,1455475951.63366389274597167969,384
454,1455475951.68491625785827636719,376
455,1455475951.73463082313537597656,424
456,1455475951.78355526924133300781,504
457,1455475951.83422923088073730469,576
458,1455475951.88352060317993164062,608
459,1455475951.93449091911315917969,584
460,1455475951.98389935493469238281,520
461,1455475952.03487491607666015625,432
462,1455475952.08408999443054199219,384
463,1455475952.13444948196411132812,376
464,1455475952.18386507034301757812,432
465,1455475952.23438382148742675781,512
466,1455475952.28446269035339355469,584
467,1455475952.33439564704895019531,608
468,1455475952.38408780097961425781,584
469,1455475952.43440675735473632812,512
470,1455475952.48459887504577636719,424
471,1455475952.53350067138671875,376
472,1455475952.58397912979125976562,384
473,1455475952.63498020172119140625,440
474,1455475952.68445754051208496094,520
475,1455475952.733551025390625,592
476,1455475952.784027099609375,608
477,1455475952.83389019966125488281,576
478,1455475952.88373136520385742188,504
479,1455475952.93477702140808105469,416
480,1455475952.98415923118591308594,376
481,1455475953.03369450569152832031,384
482,1455475953.08426141738891601562,448
483,1455475953.13452506065368652344,528
484,1455475953.18398046493530273438,592
485,1455475953.23462748527526855469,608
486,1455475953.28392720222473144531,568
487,1455475953.33356618881225585938,488
488,1455475953.38442254066467285156,416
489,1455475953.43429398536682128906,376
490,1455475953.48444843292236328125,392
491,1455475953.53386187553405761719,456
492,1455475953.58432102203369140625,536
493,1455475953.63452005386352539062,600
494,1455475953.68460893630981445312,608
495,1455475953.73392152786254882812,560
496,1455475953.78400015830993652344,480
497,1455475953.83413672447204589844,408
498,1455475953.88355278968811035156,376
499,1455475953.93400144577026367188,392
500,1455475953.9841747283935546875,464
501,1455475954.03354477882385253906,544
502,1455475954.08370447158813476562,600
503,1455475954.13481354713439941406,608
504,1455475954.18387317657470703125,552
