id, time (s), size (bits)
0,1455475929.2736968994140625,568
1,1455475929.35153245925903320312,608
2,1455475929.43183279037475585938,512
3,1455475929.51175427436828613281,392
4,1455475929.59195065498352050781,384
5,1455475929.6726169586181640625,504
6,1455475929.75182223320007324219,600
7,1455475929.83125019073486328125,576
8,1455475929.91249322891235351562,456
9,1455475929.99203562736511230469,376
10,1455475930.0715122222900390625,432
11,1455475930.15194845199584960938,560
12,1455475930.23185133934020996094,608
13,1455475930.31231403350830078125,528
14,1455475930.39240312576293945312,400
15,1455475930.47099924087524414062,384
16,1455475930.55169916152954101562,488
17,1455475930.63234281539916992188,600
18,1455475930.71168255805969238281,592
19,1455475930.79155969619750976562,472
20,1455475930.873027801513671875,376
21,1455475930.95148515701293945312,416
22,1455475931.03111052513122558594,544
23,1455475931.11180830001831054688,608
24,1455475931.19177007675170898438,544
25,1455475931.27186512947082519531,416
26,1455475931.35213327407836914062,376
27,1455475931.43236970901489257812,472
28,1455475931.51149797439575195312,592
29,1455475931.592559814453125,592
30,1455475931.67148089408874511719,480
31,1455475931.75166821479797363281,384
32,1455475931.83188962936401367188,408
33,1455475931.91111350059509277344,528
34,1455475931.99311804771423339844,608
35,1455475932.07184910774230957031,592
36,1455475932.15118432044982910156,592
37,1455475932.231395721435546875,480
38,1455475932.31180477142333984375,376
39,1455475932.39225602149963378906,408
40,1455475932.47149109840393066406,536
41,1455475932.55299448966979980469,608
42,1455475932.63174271583557128906,552
43,1455475932.71106052398681640625,424
44,1455475932.79275536537170410156,376
45,1455475932.87124180793762207031,464
46,1455475932.95154142379760742188,584
47,1455475933.03202462196350097656,600
48,1455475933.11244082450866699219,488
49,1455475933.19256424903869628906,384
50,1455475933.27271318435668945312,400
51,1455475933.35151982307434082031,520
52,1455475933.4336223602294921875,608
53,1455475933.51284742355346679688,560
54,1455475933.5923824310302734375,432
55,1455475933.67230010032653808594,376
56,1455475933.7523899078369140625,448
57,1455475933.83170747756958007812,576
58,1455475933.91181683540344238281,608
59,1455475933.99309444427490234375,504
60,1455475934.07150793075561523438,392
61,1455475934.15101695060729980469,392
62,1455475934.23275327682495117188,512
63,1455475934.31149458885192871094,608
64,1455475934.392406463623046875,576
65,1455475934.47296261787414550781,448
66,1455475934.55161428451538085938,376
67,1455475934.63202238082885742188,432
68,1455475934.71236300468444824219,568
69,1455475934.79287242889404296875,608
70,1455475934.87165594100952148438,520
71,1455475934.95297837257385253906,400
72,1455475935.03163790702819824219,384
73,1455475935.11266374588012695312,496
74,1455475935.19295954704284667969,600
75,1455475935.27184796333312988281,584
76,1455475935.35236191749572753906,464
77,1455475935.43182492256164550781,376
78,1455475935.51186060905456542969,424
79,1455475935.59190249443054199219,552
80,1455475935.67357683181762695312,608
81,1455475935.75154423713684082031,536
82,1455475935.83095979690551757812,408
83,1455475935.91387009620666503906,376
84,1455475935.99217939376831054688,480
85,1455475936.07171797752380371094,592
86,1455475936.15273213386535644531,592
87,1455475936.23193597793579101562,472
88,1455475936.31176638603210449219,376
89,1455475936.39235639572143554688,408
90,1455475936.47198247909545898438,536
91,1455475936.55092000961303710938,608
92,1455475936.63332104682922363281,544
93,1455475936.71198105812072753906,424
94,1455475936.79170083999633789062,376
95,1455475936.87191939353942871094,464
96,1455475936.95192551612854003906,584
97,1455475937.03363704681396484375,600
98,1455475937.1121673583984375,488
99,1455475937.19226956367492675781,384
100,1455475937.27196145057678222656,400
101,1455475937.35177350044250488281,520
102,1455475937.43139243125915527344,608
103,1455475937.5112171173095703125,560
104,1455475937.59331870079040527344,432
105,1455475937.67189478874206542969,376
106,1455475937.75118756294250488281,448
107,1455475937.83271455764770507812,576
108,1455475937.9111461639404296875,608
109,1455475937.99206829071044921875,504
110,1455475938.07182955741882324219,392
111,1455475938.15206122398376464844,392
112,1455475938.23173189163208007812,504
113,1455475938.3119869232177734375,608
114,1455475938.39187145233154296875,576
115,1455475938.4711704254150390625,448
116,1455475938.55232787132263183594,376
117,1455475938.63090920448303222656,432
118,1455475938.71211218833923339844,560
119,1455475938.7930622100830078125,608
120,1455475938.87090563774108886719,520
121,1455475938.95159649848937988281,400
122,1455475939.03287148475646972656,384
123,1455475939.1111965179443359375,496
124,1455475939.19308209419250488281,600
125,1455475939.27290058135986328125,584
126,1455475939.35150122642517089844,464
127,1455475939.43182730674743652344,376
128,1455475939.51214480400085449219,424
129,1455475939.5918979644775390625,552
130,1455475939.67132067680358886719,608
131,1455475939.75176668167114257812,536
132,1455475939.83185887336730957031,408
133,1455475939.91106486320495605469,376
134,1455475939.99243235588073730469,480
135,1455475940.07087111473083496094,592
136,1455475940.15107989311218261719,592
137,1455475940.23227524757385253906,472
138,1455475940.31119108200073242188,376
139,1455475940.39283704757690429688,408
140,1455475940.47228336334228515625,536
141,1455475940.55159115791320800781,608
142,1455475940.63158655166625976562,552
143,1455475940.71224904060363769531,416
144,1455475940.79193401336669921875,376
145,1455475940.87143945693969726562,464
146,1455475940.95345139503479003906,584
147,1455475941.03137111663818359375,544
148,1455475941.11095952987670898438,608
149,1455475941.19313263893127441406,544
150,1455475941.27163338661193847656,416
151,1455475941.35141754150390625,376
152,1455475941.43224883079528808594,472
153,1455475941.51204800605773925781,592
154,1455475941.59188580513000488281,600
155,1455475941.67251157760620117188,480
156,1455475941.75227618217468261719,376
157,1455475941.83161878585815429688,408
158,1455475941.91447901725769042969,536
159,1455475941.9923572540283203125,608
160,1455475942.07263898849487304688,552
161,1455475942.15202116966247558594,424
162,1455475942.23191690444946289062,376
163,1455475942.31131315231323242188,456
164,1455475942.39323711395263671875,584
165,1455475942.4717693328857421875,600
166,1455475942.55204629898071289062,496
167,1455475942.63320469856262207031,384
168,1455475942.711116790771484375,392
169,1455475942.79174208641052246094,512
170,1455475942.87258577346801757812,608
171,1455475942.95131158828735351562,568
172,1455475943.0319461822509765625,440
173,1455475943.1119022369384765625,376
174,1455475943.19235062599182128906,440
175,1455475943.27185106277465820312,568
176,1455475943.35174608230590820312,608
177,1455475943.43185591697692871094,512
178,1455475943.51135396957397460938,392
179,1455475943.593807220458984375,392
180,1455475943.67154359817504882812,504
181,1455475943.75188755989074707031,608
182,1455475943.83445429801940917969,576
183,1455475943.91297507286071777344,456
184,1455475943.99242758750915527344,376
185,1455475944.07196211814880371094,432
186,1455475944.15126204490661621094,560
187,1455475944.231830596923828125,608
188,1455475944.31243968009948730469,528
189,1455475944.39229989051818847656,400
190,1455475944.4709320068359375,384
191,1455475944.55250597000122070312,488
192,1455475944.63159275054931640625,600
193,1455475944.711795806884765625,592
194,1455475944.79240322113037109375,464
195,1455475944.87205982208251953125,376
196,1455475944.95186614990234375,416
197,1455475945.03308129310607910156,544
198,1455475945.11199045181274414062,608
199,1455475945.1922054290771484375,544
200,1455475945.27275753021240234375,416
201,1455475945.35150194168090820312,376
202,1455475945.43248867988586425781,472
203,1455475945.51233911514282226562,592
204,1455475945.59196543693542480469,600
205,1455475945.67169952392578125,480
206,1455475945.75174188613891601562,384
207,1455475945.83151888847351074219,408
208,1455475945.91178941726684570312,528
209,1455475945.99394369125366210938,608
210,1455475946.07223057746887207031,552
211,1455475946.15151286125183105469,424
212,1455475946.23215937614440917969,376
213,1455475946.31160306930541992188,456
214,1455475946.39171099662780761719,584
215,1455475946.47177052497863769531,600
216,1455475946.55248165130615234375,496
217,1455475946.63192009925842285156,384
218,1455475946.7124767303466796875,400
219,1455475946.79228997230529785156,520
220,1455475946.87178301811218261719,608
221,1455475946.9520854949951171875,568
222,1455475947.03174304962158203125,440
223,1455475947.11216068267822265625,376
224,1455475947.19281792640686035156,440
225,1455475947.27087473869323730469,568
226,1455475947.35116529464721679688,608
227,1455475947.43204832077026367188,512
228,1455475947.51149868965148925781,392
229,1455475947.59221553802490234375,384
230,1455475947.6730632781982421875,504
231,1455475947.75175166130065917969,600
232,1455475947.83089184761047363281,576
233,1455475947.91255927085876464844,456
234,1455475947.9932689666748046875,376
235,1455475948.07166218757629394531,432
236,1455475948.15194463729858398438,560
237,1455475948.23199701309204101562,608
238,1455475948.31109952926635742188,528
239,1455475948.39254736900329589844,400
240,1455475948.47102880477905273438,384
241,1455475948.55196452140808105469,488
242,1455475948.63222169876098632812,600
243,1455475948.71139883995056152344,592
244,1455475948.79279851913452148438,464
245,1455475948.87229561805725097656,376
246,1455475948.95167398452758789062,416
247,1455475949.03163456916809082031,544
248,1455475949.11257123947143554688,608
249,1455475949.19206333160400390625,544
250,1455475949.27137231826782226562,416
251,1455475949.35327029228210449219,376
252,1455475949.43158578872680664062,472
253,1455475949.51141047477722167969,592
254,1455475949.59219455718994140625,600
255,1455475949.67122530937194824219,488
256,1455475949.75113964080810546875,384
257,1455475949.83245611190795898438,408
258,1455475949.91194677352905273438,528
259,1455475949.99219059944152832031,608
260,1455475950.07249784469604492188,592
261,1455475950.15210437774658203125,592
262,1455475950.23143529891967773438,480
263,1455475950.31241917610168457031,376
264,1455475950.39325475692749023438,416
265,1455475950.47237730026245117188,536
266,1455475950.55265927314758300781,608
267,1455475950.63195848464965820312,552
268,1455475950.71190690994262695312,424
269,1455475950.79300999641418457031,376
270,1455475950.87132024765014648438,464
271,1455475950.951747894287109375,584
272,1455475951.03341245651245117188,600
273,1455475951.11108112335205078125,496
274,1455475951.19331526756286621094,384
275,1455475951.2726497650146484375,400
276,1455475951.35156345367431640625,520
277,1455475951.43279361724853515625,608
278,1455475951.51181936264038085938,560
279,1455475951.59258246421813964844,432
280,1455475951.67145514488220214844,376
281,1455475951.75210475921630859375,448
282,1455475951.83184671401977539062,576
283,1455475951.91139531135559082031,608
284,1455475951.99315118789672851562,504
285,1455475952.07118272781372070312,392
286,1455475952.1523685455322265625,392
287,1455475952.23182249069213867188,512
288,1455475952.31182956695556640625,608
289,1455475952.3924407958984375,576
290,1455475952.47241997718811035156,448
291,1455475952.55192160606384277344,376
292,1455475952.631977081298828125,432
293,1455475952.71360731124877929688,568
294,1455475952.7923431396484375,608
295,1455475952.87172436714172363281,520
296,1455475952.95251154899597167969,400
297,1455475953.03163957595825195312,384
298,1455475953.11184358596801757812,496
299,1455475953.19250822067260742188,600
300,1455475953.27278661727905273438,584
301,1455475953.351825714111328125,464
302,1455475953.432346343994140625,376
303,1455475953.51114749908447265625,424
304,1455475953.59203553199768066406,552
305,1455475953.67327785491943359375,608
306,1455475953.75300908088684082031,536
307,1455475953.83204483985900878906,408
308,1455475953.91270327568054199219,376
309,1455475953.99200415611267089844,480
310,1455475954.07178735733032226562,592
311,1455475954.15228891372680664062,592
312,1455475954.23257613182067871094,472
313,1455475954.31091833114624023438,376
314,1455475954.39386844635009765625,416
315,1455475954.47137737274169921875,536
316,1455475954.55188035964965820312,608
317,1455475954.63291501998901367188,544
318,1455475954.71121907234191894531,424
319,1455475954.79189300537109375,376
320,1455475954.87393212318420410156,464
321,1455475954.95212531089782714844,584
322,1455475955.03335928916931152344,600
323,1455475955.11223149299621582031,488
324,1455475955.19229936599731445312,384
325,1455475955.27154326438903808594,400
326,1455475955.35283136367797851562,528
327,1455475955.4317646026611328125,608
328,1455475955.51269292831420898438,560
329,1455475955.59320354461669921875,432
330,1455475955.67132973670959472656,376
331,1455475955.75117564201354980469,448
332,1455475955.83220553398132324219,576
333,1455475955.91149735450744628906,608
334,1455475955.99187183380126953125,504
335,1455475956.07306075096130371094,392
336,1455475956.151035308837890625,392
337,1455475956.23228764533996582031,512
338,1455475956.31151247024536132812,608
339,1455475956.39206337928771972656,576
340,1455475956.47112917900085449219,448
341,1455475956.55287337303161621094,376
342,1455475956.63426423072814941406,440
343,1455475956.71167826652526855469,560
344,1455475956.79229760169982910156,608
345,1455475956.87137913703918457031,520
346,1455475956.95185351371765136719,400
347,1455475957.03165650367736816406,384
348,1455475957.11107516288757324219,488
349,1455475957.19292116165161132812,600
350,1455475957.27236795425415039062,584
351,1455475957.35176897048950195312,464
352,1455475957.43224787712097167969,376
353,1455475957.51224374771118164062,424
354,1455475957.59187579154968261719,552
355,1455475957.67096352577209472656,608
356,1455475957.75317454338073730469,536
357,1455475957.83236932754516601562,408
358,1455475957.91109299659729003906,376
359,1455475957.99249863624572753906,480
360,1455475958.07104897499084472656,592
361,1455475958.15096640586853027344,592
362,1455475958.23282337188720703125,472
363,1455475958.31211376190185546875,376
364,1455475958.39179587364196777344,408
365,1455475958.47241497039794921875,536
366,1455475958.55189609527587890625,608
367,1455475958.63167023658752441406,552
368,1455475958.7118892669677734375,424
369,1455475958.79215002059936523438,376
370,1455475958.87216329574584960938,464
371,1455475958.95301413536071777344,584
372,1455475959.03359627723693847656,544
373,1455475959.11184287071228027344,608
374,1455475959.19296908378601074219,544
375,1455475959.271282196044921875,416
376,1455475959.35278654098510742188,376
377,1455475959.43335127830505371094,472
378,1455475959.51098299026489257812,592
379,1455475959.59196114540100097656,600
380,1455475959.6720733642578125,480
381,1455475959.75116300582885742188,384
382,1455475959.83135819435119628906,408
383,1455475959.91260695457458496094,528
384,1455475959.99280405044555664062,608
385,1455475960.07265591621398925781,552
386,1455475960.15389418601989746094,424
387,1455475960.23093414306640625,376
388,1455475960.31193876266479492188,456
389,1455475960.39296221733093261719,584
390,1455475960.47162556648254394531,600
391,1455475960.55240345001220703125,496
392,1455475960.63200664520263671875,384
393,1455475960.7131786346435546875,400
394,1455475960.79187703132629394531,512
395,1455475960.87258219718933105469,608
396,1455475960.95183563232421875,568
397,1455475961.03108668327331542969,440
398,1455475961.11334133148193359375,376
399,1455475961.19182062149047851562,440
400,1455475961.27089619636535644531,568
401,1455475961.3537311553955078125,608
402,1455475961.43209576606750488281,512
403,1455475961.51149535179138183594,392
404,1455475961.5930881500244140625,392
405,1455475961.67300820350646972656,504
406,1455475961.75170564651489257812,600
407,1455475961.83191943168640136719,576
408,1455475961.91204667091369628906,456
409,1455475961.99239611625671386719,376
410,1455475962.07350611686706542969,432
411,1455475962.15282511711120605469,560
412,1455475962.23199820518493652344,608
413,1455475962.31238460540771484375,528
414,1455475962.39179706573486328125,400
415,1455475962.47178554534912109375,384
416,1455475962.55434536933898925781,488
417,1455475962.63243269920349121094,600
418,1455475962.71198320388793945312,592
419,1455475962.7937297821044921875,464
420,1455475962.87275838851928710938,376
421,1455475962.95143413543701171875,416
422,1455475963.03236365318298339844,544
423,1455475963.111621856689453125,608
424,1455475963.19174933433532714844,544
425,1455475963.2719287872314453125,416
426,1455475963.36541128158569335938,384
427,1455475963.43211460113525390625,472
428,1455475963.51190996170043945312,592
429,1455475963.59163951873779296875,600
430,1455475963.67155385017395019531,480
431,1455475963.75228714942932128906,376
432,1455475963.83111691474914550781,408
433,1455475963.91223287582397460938,528
434,1455475963.99244236946105957031,608
435,1455475964.07354760169982910156,552
436,1455475964.15262579917907714844,424
437,1455475964.23213648796081542969,376
438,1455475964.31127142906188964844,456
439,1455475964.39210867881774902344,584
440,1455475964.47247171401977539062,600
441,1455475964.5522613525390625,496
442,1455475964.63158845901489257812,384
443,1455475964.71178317070007324219,392
444,1455475964.79233050346374511719,520
445,1455475964.87088799476623535156,608
446,1455475964.9538726806640625,568
447,1455475965.03426575660705566406,440
448,1455475965.11106038093566894531,376
449,1455475965.19285845756530761719,440
450,1455475965.27147507667541503906,568
451,1455475965.35163044929504394531,608
452,1455475965.43274235725402832031,512
453,1455475965.5113925933837890625,392
454,1455475965.59310555458068847656,392
455,1455475965.67264008522033691406,504
456,1455475965.75250864028930664062,608
457,1455475965.83356714248657226562,576
458,1455475965.91187047958374023438,456
459,1455475965.99154615402221679688,376
460,1455475966.07092380523681640625,424
461,1455475966.15430235862731933594,560
462,1455475966.23222088813781738281,608
463,1455475966.31171131134033203125,528
464,1455475966.39415192604064941406,400
465,1455475966.47162413597106933594,384
466,1455475966.55267095565795898438,488
467,1455475966.63151049613952636719,600
468,1455475966.71259737014770507812,584
469,1455475966.79165220260620117188,472
470,1455475966.87262511253356933594,376
471,1455475966.95274305343627929688,416
472,1455475967.03172254562377929688,544
473,1455475967.11218023300170898438,608
474,1455475967.1922283172607421875,544
475,1455475967.27204847335815429688,416
476,1455475967.35322356224060058594,376
477,1455475967.43335175514221191406,472
478,1455475967.51183366775512695312,592
479,1455475967.59261775016784667969,592
480,1455475967.67147874832153320312,480
481,1455475967.75261688232421875,376
482,1455475967.83238506317138671875,408
483,1455475967.91124677658081054688,528
484,1455475967.99230837821960449219,608
485,1455475968.07249855995178222656,592
486,1455475968.15206170082092285156,592
487,1455475968.23195314407348632812,472
488,1455475968.31180572509765625,376
489,1455475968.39287996292114257812,416
490,1455475968.47191357612609863281,536
491,1455475968.5522174835205078125,608
492,1455475968.63178515434265136719,552
493,1455475968.71129918098449707031,424
494,1455475968.79271793365478515625,376
495,1455475968.87158060073852539062,464
496,1455475968.95186400413513183594,584
497,1455475969.0323886871337890625,600
498,1455475969.11160993576049804688,488
499,1455475969.19248199462890625,384
500,1455475969.27254319190979003906,400
501,1455475969.35374212265014648438,528
502,1455475969.4318141937255859375,608
503,1455475969.51287198066711425781,560
504,1455475969.59206485748291015625,432
