id, time (s), size (bits)
0,1455475922.76567578315734863281,376
1,1455475922.81539177894592285156,392
2,1455475922.86642003059387207031,456
3,1455475922.91579270362854003906,536
4,1455475922.96678829193115234375,600
5,1455475923.01695036888122558594,520
6,1455475923.06580495834350585938,592
7,1455475923.11607098579406738281,608
8,1455475923.16631793975830078125,576
9,1455475923.21538257598876953125,504
10,1455475923.26639580726623535156,424
11,1455475923.31575465202331542969,376
12,1455475923.36556529998779296875,384
13,1455475923.41620969772338867188,448
14,1455475923.46631026268005371094,528
15,1455475923.51645398139953613281,592
16,1455475923.56552648544311523438,608
17,1455475923.61516022682189941406,568
18,1455475923.66593980789184570312,496
19,1455475923.71576404571533203125,416
20,1455475923.76636624336242675781,376
21,1455475923.8155841827392578125,392
22,1455475923.86550021171569824219,456
23,1455475923.9164257049560546875,536
24,1455475923.96582961082458496094,600
25,1455475924.01581740379333496094,608
26,1455475924.06597471237182617188,560
27,1455475924.11615538597106933594,480
28,1455475924.16602587699890136719,408
29,1455475924.21596550941467285156,376
30,1455475924.26577496528625488281,392
31,1455475924.31551814079284667969,464
32,1455475924.36656832695007324219,544
33,1455475924.41556835174560546875,600
34,1455475924.46568131446838378906,608
35,1455475924.51625108718872070312,552
36,1455475924.5660190582275390625,472
37,1455475924.61588191986083984375,400
38,1455475924.66634106636047363281,376
39,1455475924.71526503562927246094,400
40,1455475924.76553940773010253906,472
41,1455475924.81641745567321777344,552
42,1455475924.86583971977233886719,608
43,1455475924.91565680503845214844,600
44,1455475924.96550035476684570312,552
45,1455475925.01543855667114257812,464
46,1455475925.06617569923400878906,392
47,1455475925.11611413955688476562,376
48,1455475925.16569280624389648438,408
49,1455475925.21640467643737792969,480
50,1455475925.26591515541076660156,560
51,1455475925.31629467010498046875,608
52,1455475925.36594438552856445312,600
53,1455475925.41580152511596679688,536
54,1455475925.46571135520935058594,456
55,1455475925.51578569412231445312,392
56,1455475925.56551885604858398438,376
57,1455475925.61516356468200683594,416
58,1455475925.66560959815979003906,488
59,1455475925.71516251564025878906,568
60,1455475925.76534557342529296875,608
61,1455475925.81609797477722167969,592
62,1455475925.86561369895935058594,528
63,1455475925.91588068008422851562,448
64,1455475925.96562623977661132812,384
65,1455475926.01559305191040039062,376
66,1455475926.06617283821105957031,424
67,1455475926.11553287506103515625,496
68,1455475926.1661052703857421875,576
69,1455475926.21621012687683105469,608
70,1455475926.26608729362487792969,592
71,1455475926.31620836257934570312,520
72,1455475926.36657071113586425781,440
73,1455475926.41558480262756347656,384
74,1455475926.46571755409240722656,376
75,1455475926.51604938507080078125,432
76,1455475926.56623244285583496094,512
77,1455475926.61648845672607421875,584
78,1455475926.66605091094970703125,608
79,1455475926.71646022796630859375,584
80,1455475926.76583099365234375,512
81,1455475926.81597971916198730469,432
82,1455475926.86629652976989746094,376
83,1455475926.91574215888977050781,384
84,1455475926.9660167694091796875,440
85,1455475927.01681113243103027344,520
86,1455475927.06572723388671875,592
87,1455475927.11581826210021972656,608
88,1455475927.16612863540649414062,576
89,1455475927.21659135818481445312,504
90,1455475927.26583576202392578125,424
91,1455475927.3157367706298828125,376
92,1455475927.36610126495361328125,384
93,1455475927.41615366935729980469,448
94,1455475927.46629166603088378906,528
95,1455475927.51689672470092773438,592
96,1455475927.56616663932800292969,608
97,1455475927.61624217033386230469,568
98,1455475927.66642856597900390625,496
99,1455475927.83393740653991699219,408
100,1455475927.83865308761596679688,416
101,1455475927.88563394546508789062,488
102,1455475927.93514251708984375,568
103,1455475927.98524737358093261719,608
104,1455475928.03513264656066894531,600
105,1455475928.08570027351379394531,536
106,1455475928.13550472259521484375,448
107,1455475928.18627142906188964844,384
108,1455475928.23506069183349609375,376
109,1455475928.28571772575378417969,416
110,1455475928.33549189567565917969,496
111,1455475928.38514256477355957031,576
112,1455475928.43578815460205078125,608
113,1455475928.48482632637023925781,592
114,1455475928.53650379180908203125,528
115,1455475928.58592867851257324219,440
116,1455475928.63506960868835449219,384
117,1455475928.68603396415710449219,376
118,1455475928.73601269721984863281,424
119,1455475928.78544974327087402344,504
120,1455475928.83512210845947265625,576
121,1455475928.8863239288330078125,608
122,1455475928.9354400634765625,584
123,1455475928.98543477058410644531,520
124,1455475929.03589296340942382812,432
125,1455475929.08510828018188476562,384
126,1455475929.13537526130676269531,376
127,1455475929.18524217605590820312,432
128,1455475929.23670601844787597656,520
129,1455475929.28557705879211425781,584
130,1455475929.33694744110107421875,608
131,1455475929.38548779487609863281,584
132,1455475929.43518662452697753906,504
133,1455475929.48552227020263671875,424
134,1455475929.53538393974304199219,376
135,1455475929.58687663078308105469,384
136,1455475929.63599252700805664062,440
137,1455475929.68546628952026367188,520
138,1455475929.73502278327941894531,592
139,1455475929.78557920455932617188,608
140,1455475929.83516860008239746094,576
141,1455475929.88487553596496582031,496
142,1455475929.93715143203735351562,416
143,1455475929.98506426811218261719,376
144,1455475930.03536128997802734375,384
145,1455475930.08553409576416015625,448
146,1455475930.13524508476257324219,536
147,1455475930.18493556976318359375,592
148,1455475930.23812198638916015625,608
149,1455475930.28696894645690917969,568
150,1455475930.33547568321228027344,488
151,1455475930.3855724334716796875,408
152,1455475930.43576145172119140625,376
153,1455475930.48509240150451660156,392
154,1455475930.53639721870422363281,456
155,1455475930.58530354499816894531,544
156,1455475930.63696122169494628906,600
157,1455475930.68544363975524902344,608
158,1455475930.73474097251892089844,560
159,1455475930.78601717948913574219,480
160,1455475930.83724665641784667969,400
161,1455475930.88532376289367675781,376
162,1455475930.93494820594787597656,400
163,1455475930.98623561859130859375,472
164,1455475931.0350933074951171875,552
165,1455475931.08566880226135253906,608
166,1455475931.13615250587463378906,608
167,1455475931.18497109413146972656,552
168,1455475931.23507380485534667969,472
169,1455475931.28514599800109863281,400
170,1455475931.33660602569580078125,376
171,1455475931.38504481315612792969,400
172,1455475931.43581748008728027344,480
173,1455475931.48496913909912109375,560
174,1455475931.53520965576171875,608
175,1455475931.58546948432922363281,600
176,1455475931.63607120513916015625,544
177,1455475931.68601918220520019531,456
178,1455475931.73605799674987792969,392
179,1455475931.78522944450378417969,376
180,1455475931.835773468017578125,408
181,1455475931.88487672805786132812,488
182,1455475931.935581207275390625,568
183,1455475931.98487138748168945312,608
184,1455475932.03741049766540527344,552
185,1455475932.08529186248779296875,608
186,1455475932.13466715812683105469,608
187,1455475932.18571686744689941406,552
188,1455475932.23544597625732421875,472
189,1455475932.284881591796875,400
190,1455475932.33618807792663574219,376
191,1455475932.38763880729675292969,408
192,1455475932.43575215339660644531,480
193,1455475932.48536181449890136719,560
194,1455475932.53542852401733398438,608
195,1455475932.58474421501159667969,600
196,1455475932.63620924949645996094,544
197,1455475932.685741424560546875,464
198,1455475932.73607492446899414062,392
199,1455475932.78694653511047363281,376
200,1455475932.83570146560668945312,408
201,1455475932.88569474220275878906,488
202,1455475932.93694972991943359375,568
203,1455475932.98489642143249511719,608
204,1455475933.03483653068542480469,600
205,1455475933.08639693260192871094,536
206,1455475933.13572382926940917969,448
207,1455475933.18569779396057128906,384
208,1455475933.23536992073059082031,376
209,1455475933.28564119338989257812,416
210,1455475933.33571147918701171875,496
211,1455475933.38567352294921875,576
212,1455475933.43736934661865234375,608
213,1455475933.48562502861022949219,592
214,1455475933.53587746620178222656,528
215,1455475933.58538484573364257812,440
216,1455475933.63477444648742675781,384
217,1455475933.68537688255310058594,376
218,1455475933.73496985435485839844,424
219,1455475933.78683876991271972656,504
220,1455475933.83594584465026855469,576
221,1455475933.88508152961730957031,608
222,1455475933.93731713294982910156,584
223,1455475933.98491215705871582031,520
224,1455475934.03503155708312988281,432
225,1455475934.08537173271179199219,376
226,1455475934.13750624656677246094,384
227,1455475934.18519043922424316406,432
228,1455475934.23566222190856933594,512
229,1455475934.28475737571716308594,584
230,1455475934.33517408370971679688,608
231,1455475934.38503599166870117188,584
232,1455475934.43707251548767089844,504
233,1455475934.48591589927673339844,424
234,1455475934.53487443923950195312,376
235,1455475934.5847873687744140625,384
236,1455475934.63562464714050292969,440
237,1455475934.68523287773132324219,520
238,1455475934.73556208610534667969,592
239,1455475934.78510355949401855469,608
240,1455475934.83647179603576660156,576
241,1455475934.88566493988037109375,496
242,1455475934.9358978271484375,416
243,1455475934.98638439178466796875,376
244,1455475935.0372371673583984375,392
245,1455475935.08565115928649902344,448
246,1455475935.13543581962585449219,536
247,1455475935.18876314163208007812,600
248,1455475935.23553919792175292969,608
249,1455475935.28493404388427734375,568
250,1455475935.33618044853210449219,488
251,1455475935.38481259346008300781,416
252,1455475935.43571305274963378906,376
253,1455475935.48477840423583984375,392
254,1455475935.53670096397399902344,464
255,1455475935.58500242233276367188,544
256,1455475935.63630151748657226562,600
257,1455475935.6857089996337890625,608
258,1455475935.73508381843566894531,560
259,1455475935.78529405593872070312,480
260,1455475935.83502054214477539062,408
261,1455475935.88623809814453125,376
262,1455475935.93555498123168945312,400
263,1455475935.98519802093505859375,464
264,1455475936.03561282157897949219,552
265,1455475936.08526468276977539062,608
266,1455475936.13553500175476074219,608
267,1455475936.18573737144470214844,552
268,1455475936.23712944984436035156,464
269,1455475936.2856540679931640625,400
270,1455475936.33474612236022949219,376
271,1455475936.385890960693359375,400
272,1455475936.43516755104064941406,480
273,1455475936.48532438278198242188,560
274,1455475936.53568792343139648438,608
275,1455475936.58614492416381835938,600
276,1455475936.63538146018981933594,544
277,1455475936.685070037841796875,464
278,1455475936.734989166259765625,392
279,1455475936.78545880317687988281,376
280,1455475936.83625817298889160156,408
281,1455475936.88707995414733886719,488
282,1455475936.93754529953002929688,568
283,1455475936.98524403572082519531,608
284,1455475937.03582859039306640625,600
285,1455475937.08566188812255859375,536
286,1455475937.13643002510070800781,448
287,1455475937.185100555419921875,392
288,1455475937.23581576347351074219,376
289,1455475937.28598546981811523438,416
290,1455475937.33562350273132324219,496
291,1455475937.38575196266174316406,576
292,1455475937.4373874664306640625,608
293,1455475937.484836578369140625,592
294,1455475937.53509044647216796875,528
295,1455475937.58505225181579589844,440
296,1455475937.63703632354736328125,384
297,1455475937.68526768684387207031,376
298,1455475937.73586726188659667969,424
299,1455475937.78552842140197753906,504
300,1455475937.83574247360229492188,576
301,1455475937.88486361503601074219,608
302,1455475937.9355030059814453125,584
303,1455475937.98673224449157714844,512
304,1455475938.0363407135009765625,432
305,1455475938.08537411689758300781,376
306,1455475938.13479495048522949219,376
307,1455475938.18523740768432617188,432
308,1455475938.23724651336669921875,520
309,1455475938.28537392616271972656,584
310,1455475938.33782315254211425781,608
311,1455475938.38565611839294433594,584
312,1455475938.43571257591247558594,504
313,1455475938.48530745506286621094,424
314,1455475938.53518462181091308594,376
315,1455475938.58560276031494140625,384
316,1455475938.63889718055725097656,448
317,1455475938.68699240684509277344,528
318,1455475938.73538851737976074219,592
319,1455475938.78524160385131835938,608
320,1455475938.83560681343078613281,576
321,1455475938.88500046730041503906,496
322,1455475938.93577647209167480469,416
323,1455475938.98563408851623535156,376
324,1455475939.03729891777038574219,392
325,1455475939.085437774658203125,448
326,1455475939.13569474220275878906,536
327,1455475939.18500494956970214844,592
328,1455475939.23563361167907714844,608
329,1455475939.28582763671875,568
330,1455475939.33534383773803710938,488
331,1455475939.38655233383178710938,408
332,1455475939.43521451950073242188,376
333,1455475939.48504996299743652344,392
334,1455475939.53537154197692871094,456
335,1455475939.58544516563415527344,544
336,1455475939.63558220863342285156,600
337,1455475939.68489384651184082031,608
338,1455475939.73622250556945800781,560
339,1455475939.78479743003845214844,480
340,1455475939.83565402030944824219,408
341,1455475939.8850460052490234375,376
342,1455475939.93519830703735351562,400
343,1455475939.98570728302001953125,464
344,1455475940.0351734161376953125,552
345,1455475940.08624553680419921875,608
346,1455475940.13606524467468261719,608
347,1455475940.18530750274658203125,552
348,1455475940.235931396484375,472
349,1455475940.28554892539978027344,400
350,1455475940.33518552780151367188,376
351,1455475940.38492798805236816406,400
352,1455475940.43693852424621582031,480
353,1455475940.48553967475891113281,560
354,1455475940.53491854667663574219,608
355,1455475940.58529782295227050781,600
356,1455475940.63495707511901855469,544
357,1455475940.68572449684143066406,464
358,1455475940.73589086532592773438,392
359,1455475940.78841471672058105469,376
360,1455475940.83565855026245117188,408
361,1455475940.88557553291320800781,488
362,1455475940.93475961685180664062,568
363,1455475940.98554229736328125,608
364,1455475941.03631353378295898438,552
365,1455475941.08499383926391601562,600
366,1455475941.13667392730712890625,608
367,1455475941.18524289131164550781,552
368,1455475941.23551702499389648438,472
369,1455475941.28481316566467285156,400
370,1455475941.33609080314636230469,376
371,1455475941.385730743408203125,400
372,1455475941.43573665618896484375,480
373,1455475941.48674154281616210938,560
374,1455475941.53506350517272949219,608
375,1455475941.58561182022094726562,600
376,1455475941.63583874702453613281,544
377,1455475941.68551945686340332031,464
378,1455475941.73643755912780761719,392
379,1455475941.78553032875061035156,376
380,1455475941.83618068695068359375,408
381,1455475941.88559126853942871094,488
382,1455475941.93609952926635742188,568
383,1455475941.98570179939270019531,608
384,1455475942.03567719459533691406,600
385,1455475942.08542871475219726562,536
386,1455475942.13507771492004394531,456
387,1455475942.18622732162475585938,384
388,1455475942.23580694198608398438,376
389,1455475942.28524613380432128906,416
390,1455475942.3354816436767578125,496
391,1455475942.38494896888732910156,568
392,1455475942.43519711494445800781,608
393,1455475942.48583173751831054688,592
394,1455475942.53698635101318359375,520
395,1455475942.58551383018493652344,440
396,1455475942.63583517074584960938,384
397,1455475942.68518280982971191406,376
398,1455475942.73512029647827148438,424
399,1455475942.7871417999267578125,504
400,1455475942.83693289756774902344,584
401,1455475942.88623833656311035156,608
402,1455475942.9351959228515625,584
403,1455475942.98558402061462402344,520
404,1455475943.03472900390625,432
405,1455475943.08595538139343261719,376
406,1455475943.13544106483459472656,376
407,1455475943.18536329269409179688,432
408,1455475943.23624014854431152344,512
409,1455475943.28532242774963378906,584
410,1455475943.33555936813354492188,608
411,1455475943.3849239349365234375,584
412,1455475943.43548440933227539062,504
413,1455475943.48601627349853515625,424
414,1455475943.53477597236633300781,376
415,1455475943.58628535270690917969,384
416,1455475943.63512206077575683594,440
417,1455475943.68536591529846191406,520
418,1455475943.73577427864074707031,592
419,1455475943.785633087158203125,608
420,1455475943.83600878715515136719,576
421,1455475943.88510155677795410156,496
422,1455475943.93603920936584472656,416
423,1455475943.98570418357849121094,376
424,1455475944.03563094139099121094,384
425,1455475944.08631038665771484375,448
426,1455475944.13495993614196777344,528
427,1455475944.18574929237365722656,600
428,1455475944.23582935333251953125,608
429,1455475944.2878742218017578125,560
430,1455475944.33574604988098144531,488
431,1455475944.38515114784240722656,408
432,1455475944.43533778190612792969,376
433,1455475944.48544168472290039062,392
434,1455475944.53564095497131347656,456
435,1455475944.58503651618957519531,544
436,1455475944.63744997978210449219,600
437,1455475944.68509650230407714844,608
438,1455475944.73555254936218261719,560
439,1455475944.78573656082153320312,480
440,1455475944.83545541763305664062,408
441,1455475944.88540673255920410156,376
442,1455475944.936061859130859375,400
443,1455475944.98617625236511230469,472
444,1455475945.03509807586669921875,552
445,1455475945.08569550514221191406,608
446,1455475945.13578724861145019531,608
447,1455475945.18533921241760253906,552
448,1455475945.23544788360595703125,472
449,1455475945.28543806076049804688,400
450,1455475945.33678340911865234375,376
451,1455475945.38565540313720703125,400
452,1455475945.43486380577087402344,472
453,1455475945.48658466339111328125,560
454,1455475945.53632187843322753906,608
455,1455475945.58579492568969726562,600
456,1455475945.63529133796691894531,544
457,1455475945.68646001815795898438,456
458,1455475945.73472046852111816406,392
459,1455475945.78572702407836914062,376
460,1455475945.83560681343078613281,408
461,1455475945.88500952720642089844,488
462,1455475945.93502736091613769531,568
463,1455475945.98500657081604003906,608
464,1455475946.03667855262756347656,600
465,1455475946.08533954620361328125,536
466,1455475946.13600397109985351562,448
467,1455475946.18564605712890625,384
468,1455475946.23494195938110351562,376
469,1455475946.28578948974609375,416
470,1455475946.335186004638671875,496
471,1455475946.38673758506774902344,576
472,1455475946.43598222732543945312,608
473,1455475946.48549747467041015625,592
474,1455475946.53513193130493164062,528
475,1455475946.5854663848876953125,440
476,1455475946.63497090339660644531,384
477,1455475946.68588161468505859375,376
478,1455475946.73690629005432128906,424
479,1455475946.78554558753967285156,504
480,1455475946.83511805534362792969,576
481,1455475946.885280609130859375,608
482,1455475946.93515133857727050781,584
483,1455475946.98486256599426269531,520
484,1455475947.03596973419189453125,432
485,1455475947.08674359321594238281,376
486,1455475947.13582444190979003906,376
487,1455475947.18485283851623535156,432
488,1455475947.23561239242553710938,512
489,1455475947.28476953506469726562,584
490,1455475947.33547067642211914062,608
491,1455475947.385265350341796875,584
492,1455475947.43683552742004394531,504
493,1455475947.48508000373840332031,424
494,1455475947.53550767898559570312,376
495,1455475947.58559489250183105469,384
496,1455475947.63649272918701171875,440
497,1455475947.68522000312805175781,520
498,1455475947.73595476150512695312,592
499,1455475947.78580760955810546875,608
500,1455475947.83593726158142089844,576
501,1455475947.88525080680847167969,496
502,1455475947.93595290184020996094,416
503,1455475947.98467397689819335938,376
