id, time (s), size (bits)
0,1455475922.78641223907470703125,376
1,1455475922.85663771629333496094,440
2,1455475922.92606067657470703125,552
3,1455475922.99635171890258789062,608
4,1455475923.06638956069946289062,592
5,1455475923.13681554794311523438,608
6,1455475923.20599818229675292969,520
7,1455475923.27567386627197265625,408
8,1455475923.34658980369567871094,376
9,1455475923.41672205924987792969,448
10,1455475923.48588538169860839844,560
11,1455475923.55737590789794921875,608
12,1455475923.62646055221557617188,560
13,1455475923.69649529457092285156,440
14,1455475923.76698517799377441406,376
15,1455475923.83616042137145996094,408
16,1455475923.90577650070190429688,520
17,1455475923.97709107398986816406,608
18,1455475924.04660511016845703125,584
19,1455475924.11674022674560546875,480
20,1455475924.18645596504211425781,384
21,1455475924.25638079643249511719,384
22,1455475924.32675218582153320312,480
23,1455475924.39691925048828125,584
24,1455475924.4664440155029296875,608
25,1455475924.53611230850219726562,528
26,1455475924.60554146766662597656,416
27,1455475924.67555332183837890625,376
28,1455475924.74661326408386230469,440
29,1455475924.81746554374694824219,552
30,1455475924.88639593124389648438,608
31,1455475924.95651459693908691406,560
32,1455475925.02573847770690917969,448
33,1455475925.09647297859191894531,376
34,1455475925.16627550125122070312,408
35,1455475925.23640084266662597656,512
36,1455475925.30597734451293945312,600
37,1455475925.37629485130310058594,592
38,1455475925.44611501693725585938,488
39,1455475925.51631140708923339844,392
40,1455475925.58611750602722167969,384
41,1455475925.65744709968566894531,480
42,1455475925.72660660743713378906,584
43,1455475925.79593586921691894531,608
44,1455475925.86617374420166015625,528
45,1455475925.93669366836547851562,416
46,1455475926.00593256950378417969,376
47,1455475926.07761788368225097656,440
48,1455475926.14601016044616699219,552
49,1455475926.2167453765869140625,608
50,1455475926.28666281700134277344,568
51,1455475926.35670804977416992188,456
52,1455475926.42592930793762207031,376
53,1455475926.4966411590576171875,400
54,1455475926.56680989265441894531,512
55,1455475926.63698577880859375,600
56,1455475926.70590043067932128906,592
57,1455475926.77625632286071777344,496
58,1455475926.84671616554260253906,392
59,1455475926.91694927215576171875,384
60,1455475926.98576450347900390625,464
61,1455475927.05613565444946289062,576
62,1455475927.12597990036010742188,608
63,1455475927.19587612152099609375,536
64,1455475927.26643586158752441406,424
65,1455475927.33715748786926269531,376
66,1455475927.40667366981506347656,432
67,1455475927.47558689117431640625,544
68,1455475927.54652523994445800781,608
69,1455475927.61690092086791992188,568
70,1455475927.83223557472229003906,408
71,1455475927.83751630783081054688,416
72,1455475927.90380263328552246094,520
73,1455475927.97341012954711914062,600
74,1455475928.04413580894470214844,592
75,1455475928.11360502243041992188,488
76,1455475928.18375921249389648438,392
77,1455475928.25413417816162109375,384
78,1455475928.32398080825805664062,480
79,1455475928.3936367034912109375,584
80,1455475928.46369194984436035156,608
81,1455475928.53404498100280761719,528
82,1455475928.60349678993225097656,416
83,1455475928.67355132102966308594,376
84,1455475928.74368906021118164062,440
85,1455475928.814422607421875,552
86,1455475928.88402152061462402344,608
87,1455475928.95438146591186523438,568
88,1455475929.02421069145202636719,448
89,1455475929.09441614151000976562,376
90,1455475929.16531348228454589844,408
91,1455475929.2341480255126953125,512
92,1455475929.30352711677551269531,600
93,1455475929.37378191947937011719,592
94,1455475929.44382977485656738281,496
95,1455475929.51326131820678710938,392
96,1455475929.58409261703491210938,384
97,1455475929.65397143363952636719,472
98,1455475929.72410702705383300781,576
99,1455475929.79353785514831542969,608
100,1455475929.86368131637573242188,536
101,1455475929.93349051475524902344,424
102,1455475930.003566741943359375,376
103,1455475930.073894500732421875,432
104,1455475930.14406251907348632812,544
105,1455475930.21372628211975097656,608
106,1455475930.28413033485412597656,568
107,1455475930.35322737693786621094,456
108,1455475930.42392420768737792969,376
109,1455475930.49408555030822753906,400
110,1455475930.56421446800231933594,504
111,1455475930.63409447669982910156,600
112,1455475930.70334315299987792969,600
113,1455475930.773590087890625,496
114,1455475930.84445738792419433594,392
115,1455475930.91405892372131347656,376
116,1455475930.98359799385070800781,464
117,1455475931.05365753173828125,576
118,1455475931.12345767021179199219,608
119,1455475931.19371342658996582031,536
120,1455475931.26381349563598632812,424
121,1455475931.33391237258911132812,376
122,1455475931.40381741523742675781,424
123,1455475931.47426843643188476562,544
124,1455475931.54398417472839355469,608
125,1455475931.61412143707275390625,576
126,1455475931.68343997001647949219,464
127,1455475931.754039764404296875,376
128,1455475931.824146270751953125,400
129,1455475931.89402341842651367188,504
130,1455475931.96335172653198242188,600
131,1455475932.03363943099975585938,544
132,1455475932.10403513908386230469,608
133,1455475932.17412900924682617188,568
134,1455475932.24383807182312011719,456
135,1455475932.31363344192504882812,376
136,1455475932.38396501541137695312,400
137,1455475932.45440387725830078125,512
138,1455475932.52445197105407714844,600
139,1455475932.59331417083740234375,592
140,1455475932.66395998001098632812,496
141,1455475932.7332706451416015625,392
142,1455475932.80424523353576660156,384
143,1455475932.87370014190673828125,464
144,1455475932.94438886642456054688,576
145,1455475933.01370286941528320312,608
146,1455475933.08364081382751464844,536
147,1455475933.15317845344543457031,424
148,1455475933.22359561920166015625,376
149,1455475933.29323029518127441406,424
150,1455475933.36393523216247558594,544
151,1455475933.43426346778869628906,608
152,1455475933.50420212745666503906,568
153,1455475933.57364487648010253906,464
154,1455475933.64341521263122558594,376
155,1455475933.71418547630310058594,400
156,1455475933.78408527374267578125,504
157,1455475933.85327196121215820312,600
158,1455475933.92378354072570800781,600
159,1455475933.99365496635437011719,504
160,1455475934.06405520439147949219,400
161,1455475934.13407301902770996094,376
162,1455475934.20468592643737792969,464
163,1455475934.27322673797607421875,568
164,1455475934.34355568885803222656,608
165,1455475934.41364431381225585938,544
166,1455475934.48339009284973144531,432
167,1455475934.5534191131591796875,376
168,1455475934.62372446060180664062,424
169,1455475934.69372344017028808594,536
170,1455475934.76344275474548339844,608
171,1455475934.83377027511596679688,576
172,1455475934.90356588363647460938,464
173,1455475934.97336912155151367188,384
174,1455475935.04372668266296386719,392
175,1455475935.11387848854064941406,496
176,1455475935.1838932037353515625,592
177,1455475935.25344133377075195312,600
178,1455475935.32370471954345703125,512
179,1455475935.39487671852111816406,400
180,1455475935.46316647529602050781,376
181,1455475935.533966064453125,456
182,1455475935.6034412384033203125,568
183,1455475935.67402696609497070312,608
184,1455475935.74368023872375488281,544
185,1455475935.81426548957824707031,432
186,1455475935.88349199295043945312,376
187,1455475935.95335078239440917969,416
188,1455475936.02355861663818359375,528
189,1455475936.09382295608520507812,608
190,1455475936.16404485702514648438,576
191,1455475936.23339962959289550781,472
192,1455475936.30405664443969726562,384
193,1455475936.37427353858947753906,392
194,1455475936.44376850128173828125,488
195,1455475936.51386141777038574219,592
196,1455475936.58331632614135742188,600
197,1455475936.65382122993469238281,512
198,1455475936.72417879104614257812,408
199,1455475936.79402852058410644531,376
200,1455475936.86362814903259277344,448
201,1455475936.93490171432495117188,568
202,1455475937.00348114967346191406,608
203,1455475937.07366943359375,552
204,1455475937.1442203521728515625,440
205,1455475937.21460580825805664062,376
206,1455475937.28341841697692871094,416
207,1455475937.35339641571044921875,528
208,1455475937.42341876029968261719,608
209,1455475937.49374413490295410156,584
210,1455475937.56425309181213378906,480
211,1455475937.63437747955322265625,384
212,1455475937.703952789306640625,392
213,1455475937.77379560470581054688,488
214,1455475937.84329128265380859375,584
215,1455475937.91372632980346679688,608
216,1455475937.98422193527221679688,520
217,1455475938.05342626571655273438,408
218,1455475938.12418770790100097656,376
219,1455475938.19415140151977539062,448
220,1455475938.26432847976684570312,560
221,1455475938.33423471450805664062,608
222,1455475938.40381956100463867188,560
223,1455475938.47348952293395996094,448
224,1455475938.54431366920471191406,376
225,1455475938.61318707466125488281,408
226,1455475938.68409371376037597656,520
227,1455475938.75459384918212890625,608
228,1455475938.8238048553466796875,584
229,1455475938.89393448829650878906,480
230,1455475938.96380734443664550781,384
231,1455475939.03411722183227539062,384
232,1455475939.10317754745483398438,480
233,1455475939.17359566688537597656,584
234,1455475939.24421095848083496094,608
235,1455475939.31340360641479492188,528
236,1455475939.38377165794372558594,416
237,1455475939.45367217063903808594,376
238,1455475939.52354145050048828125,440
239,1455475939.59414243698120117188,552
240,1455475939.66347551345825195312,608
241,1455475939.73361253738403320312,560
242,1455475939.80358219146728515625,448
243,1455475939.8743152618408203125,376
244,1455475939.94398736953735351562,408
245,1455475940.01424837112426757812,512
246,1455475940.08351016044616699219,600
247,1455475940.15404772758483886719,592
248,1455475940.2239017486572265625,488
249,1455475940.29337143898010253906,392
250,1455475940.36321783065795898438,384
251,1455475940.43343186378479003906,472
252,1455475940.50414967536926269531,584
253,1455475940.57351088523864746094,608
254,1455475940.64357495307922363281,528
255,1455475940.71362423896789550781,416
256,1455475940.78375935554504394531,376
257,1455475940.85362386703491210938,432
258,1455475940.92480444908142089844,552
259,1455475940.99332666397094726562,608
260,1455475941.06413245201110839844,584
261,1455475941.13395214080810546875,608
262,1455475941.20381116867065429688,520
263,1455475941.27427434921264648438,408
264,1455475941.34407067298889160156,376
265,1455475941.41364789009094238281,440
266,1455475941.48397064208984375,552
267,1455475941.55390262603759765625,608
268,1455475941.62422323226928710938,560
269,1455475941.69437193870544433594,448
270,1455475941.76369047164916992188,376
271,1455475941.83326983451843261719,408
272,1455475941.90414905548095703125,520
273,1455475941.97392630577087402344,600
274,1455475942.04454731941223144531,592
275,1455475942.11410760879516601562,488
276,1455475942.18354487419128417969,392
277,1455475942.25428915023803710938,384
278,1455475942.32357692718505859375,472
279,1455475942.39357137680053710938,584
280,1455475942.46414113044738769531,608
281,1455475942.5334300994873046875,528
282,1455475942.60382604598999023438,416
283,1455475942.67343950271606445312,376
284,1455475942.74363875389099121094,440
285,1455475942.81357288360595703125,552
286,1455475942.88368511199951171875,608
287,1455475942.95407772064208984375,568
288,1455475943.02406477928161621094,456
289,1455475943.09370756149291992188,376
290,1455475943.16332554817199707031,400
291,1455475943.23363375663757324219,512
292,1455475943.3040409088134765625,600
293,1455475943.37446832656860351562,592
294,1455475943.44395279884338378906,496
295,1455475943.51422381401062011719,392
296,1455475943.58335447311401367188,384
297,1455475943.65395236015319824219,472
298,1455475943.72400808334350585938,576
299,1455475943.79344034194946289062,608
300,1455475943.86421728134155273438,536
301,1455475943.93347597122192382812,424
302,1455475944.00375652313232421875,376
303,1455475944.07366228103637695312,432
304,1455475944.14370298385620117188,544
305,1455475944.21327495574951171875,608
306,1455475944.28342270851135253906,568
307,1455475944.35374617576599121094,456
308,1455475944.4234485626220703125,376
309,1455475944.49399685859680175781,400
310,1455475944.56429004669189453125,504
311,1455475944.63370633125305175781,600
312,1455475944.70388150215148925781,592
313,1455475944.77378392219543457031,496
314,1455475944.844196319580078125,392
315,1455475944.91417980194091796875,376
316,1455475944.98347067832946777344,464
317,1455475945.05341672897338867188,576
318,1455475945.12387919425964355469,608
319,1455475945.19395804405212402344,536
320,1455475945.26320052146911621094,424
321,1455475945.333892822265625,376
322,1455475945.40321660041809082031,424
323,1455475945.47445917129516601562,544
324,1455475945.54401659965515136719,608
325,1455475945.61356139183044433594,576
326,1455475945.68387365341186523438,464
327,1455475945.75320219993591308594,376
328,1455475945.82363629341125488281,400
329,1455475945.89428997039794921875,504
330,1455475945.96432232856750488281,600
331,1455475946.03386592864990234375,600
332,1455475946.10425567626953125,504
333,1455475946.17374181747436523438,400
334,1455475946.24432206153869628906,376
335,1455475946.313777923583984375,456
336,1455475946.38402104377746582031,568
337,1455475946.45371937751770019531,608
338,1455475946.52422189712524414062,544
339,1455475946.59425616264343261719,432
340,1455475946.66342949867248535156,376
341,1455475946.73334789276123046875,424
342,1455475946.80429911613464355469,536
343,1455475946.8737583160400390625,608
344,1455475946.94394946098327636719,576
345,1455475947.0138149261474609375,472
346,1455475947.08406734466552734375,384
347,1455475947.15367388725280761719,392
348,1455475947.22378396987915039062,496
349,1455475947.29349827766418457031,592
350,1455475947.36340665817260742188,600
351,1455475947.43385863304138183594,512
352,1455475947.50411701202392578125,400
353,1455475947.57329392433166503906,376
354,1455475947.644039154052734375,456
355,1455475947.71387410163879394531,568
356,1455475947.78321480751037597656,608
357,1455475947.85343670845031738281,552
358,1455475947.9232425689697265625,440
359,1455475947.99365210533142089844,376
360,1455475948.06418943405151367188,416
361,1455475948.13339090347290039062,528
362,1455475948.20358991622924804688,608
363,1455475948.27422356605529785156,584
364,1455475948.34368205070495605469,472
365,1455475948.41360831260681152344,384
366,1455475948.48421716690063476562,392
367,1455475948.55359816551208496094,488
368,1455475948.62333631515502929688,592
369,1455475948.6934032440185546875,600
370,1455475948.76433134078979492188,512
371,1455475948.83460259437561035156,408
372,1455475948.90359616279602050781,376
373,1455475948.97408771514892578125,448
374,1455475949.0433635711669921875,560
375,1455475949.11419582366943359375,608
376,1455475949.18343377113342285156,552
377,1455475949.25376224517822265625,440
378,1455475949.3245716094970703125,376
379,1455475949.39385962486267089844,416
380,1455475949.4634151458740234375,520
381,1455475949.53412842750549316406,608
382,1455475949.6037139892578125,584
383,1455475949.67348122596740722656,480
384,1455475949.74410200119018554688,384
385,1455475949.81414246559143066406,384
386,1455475949.88398599624633789062,480
387,1455475949.9541645050048828125,584
388,1455475950.02426123619079589844,536
389,1455475950.09373188018798828125,608
390,1455475950.1637897491455078125,584
391,1455475950.23430228233337402344,472
392,1455475950.30391287803649902344,384
393,1455475950.37349820137023925781,392
394,1455475950.44398427009582519531,488
395,1455475950.513614654541015625,592
396,1455475950.58358812332153320312,600
397,1455475950.65333032608032226562,512
398,1455475950.7238445281982421875,408
399,1455475950.79368758201599121094,376
400,1455475950.86361789703369140625,448
401,1455475950.93342804908752441406,560
402,1455475951.00433254241943359375,608
403,1455475951.07374811172485351562,552
404,1455475951.14356279373168945312,440
405,1455475951.21318721771240234375,376
406,1455475951.28377509117126464844,416
407,1455475951.35451555252075195312,528
408,1455475951.42409682273864746094,608
409,1455475951.49359941482543945312,584
410,1455475951.56368780136108398438,480
411,1455475951.63332509994506835938,384
412,1455475951.70332455635070800781,384
413,1455475951.77331185340881347656,488
414,1455475951.84326934814453125,584
415,1455475951.91392731666564941406,608
416,1455475951.98385882377624511719,520
417,1455475952.05396151542663574219,408
418,1455475952.12418651580810546875,376
419,1455475952.19337606430053710938,448
420,1455475952.26350069046020507812,560
421,1455475952.33398962020874023438,608
422,1455475952.40416264533996582031,560
423,1455475952.47359824180603027344,448
424,1455475952.54319906234741210938,376
425,1455475952.61319398880004882812,408
426,1455475952.68337488174438476562,520
427,1455475952.75415372848510742188,608
428,1455475952.82316708564758300781,592
429,1455475952.89354038238525390625,488
430,1455475952.96351099014282226562,384
431,1455475953.03416299819946289062,384
432,1455475953.10397768020629882812,480
433,1455475953.17368030548095703125,584
434,1455475953.2435092926025390625,608
435,1455475953.31409335136413574219,528
436,1455475953.38365268707275390625,416
437,1455475953.45322346687316894531,376
438,1455475953.52376055717468261719,440
439,1455475953.59372615814208984375,552
440,1455475953.66326165199279785156,608
441,1455475953.73447513580322265625,560
442,1455475953.80317449569702148438,448
443,1455475953.87356543540954589844,376
444,1455475953.943546295166015625,408
445,1455475954.01353383064270019531,512
446,1455475954.08422994613647460938,600
447,1455475954.15401768684387207031,592
448,1455475954.22396183013916015625,488
449,1455475954.29445672035217285156,392
450,1455475954.36383509635925292969,384
451,1455475954.43409967422485351562,472
452,1455475954.50370931625366210938,584
453,1455475954.5734882354736328125,608
454,1455475954.64358115196228027344,528
455,1455475954.71387004852294921875,416
456,1455475954.78615856170654296875,376
457,1455475954.85351324081420898438,432
458,1455475954.92401957511901855469,552
459,1455475954.99356126785278320312,608
460,1455475955.06401658058166503906,568
461,1455475955.13363790512084960938,456
462,1455475955.20332169532775878906,376
463,1455475955.27409029006958007812,400
464,1455475955.34420442581176757812,512
465,1455475955.41371440887451171875,600
466,1455475955.48422312736511230469,592
467,1455475955.55397129058837890625,496
468,1455475955.62420701980590820312,392
469,1455475955.69386243820190429688,384
470,1455475955.76375699043273925781,472
471,1455475955.83388924598693847656,576
472,1455475955.90409708023071289062,608
473,1455475955.97393345832824707031,536
474,1455475956.04371213912963867188,424
475,1455475956.11414694786071777344,376
476,1455475956.18394780158996582031,432
477,1455475956.25360012054443359375,544
478,1455475956.32400584220886230469,608
479,1455475956.39351248741149902344,568
480,1455475956.463542938232421875,464
481,1455475956.53417110443115234375,376
482,1455475956.60384845733642578125,400
483,1455475956.67413091659545898438,504
484,1455475956.74349093437194824219,600
485,1455475956.81343483924865722656,600
486,1455475956.88333106040954589844,504
487,1455475956.95364403724670410156,400
488,1455475957.02379941940307617188,376
489,1455475957.09415507316589355469,464
490,1455475957.16334271430969238281,576
491,1455475957.23369240760803222656,608
492,1455475957.30354738235473632812,544
493,1455475957.3738842010498046875,424
494,1455475957.44411897659301757812,376
495,1455475957.51367211341857910156,424
496,1455475957.58371853828430175781,536
497,1455475957.65407299995422363281,608
498,1455475957.72428297996520996094,576
499,1455475957.79351472854614257812,464
500,1455475957.86426496505737304688,376
501,1455475958.15573740005493164062,592
502,1455475958.16389036178588867188,584
503,1455475958.22859525680541992188,480
