id, time (s), size (bits)
0,1455475928.2661838531494140625,392
1,1455475928.336383819580078125,496
2,1455475928.40595030784606933594,592
3,1455475928.47592115402221679688,600
4,1455475928.54670500755310058594,504
5,1455475928.61744594573974609375,400
6,1455475928.68604350090026855469,376
7,1455475928.75599217414855957031,456
8,1455475928.82657861709594726562,568
9,1455475928.89726305007934570312,608
10,1455475928.96673798561096191406,544
11,1455475929.03777623176574707031,432
12,1455475929.10613536834716796875,376
13,1455475929.17614865303039550781,416
14,1455475929.24752378463745117188,536
15,1455475929.31647348403930664062,608
16,1455475929.38798403739929199219,576
17,1455475929.45760822296142578125,472
18,1455475929.52694487571716308594,384
19,1455475929.59730410575866699219,392
20,1455475929.66689133644104003906,496
21,1455475929.73658275604248046875,592
22,1455475929.80797815322875976562,600
23,1455475929.87691283226013183594,512
24,1455475929.94669342041015625,408
25,1455475930.01599144935607910156,376
26,1455475930.08621883392333984375,448
27,1455475930.15672588348388671875,568
28,1455475930.22662973403930664062,608
29,1455475930.29730987548828125,552
30,1455475930.36667037010192871094,440
31,1455475930.43682551383972167969,376
32,1455475930.50603628158569335938,416
33,1455475930.57665872573852539062,528
34,1455475930.64932727813720703125,608
35,1455475930.71672892570495605469,584
36,1455475930.786266326904296875,480
37,1455475930.85673975944519042969,384
38,1455475930.92674160003662109375,392
39,1455475930.99755907058715820312,488
40,1455475931.06839227676391601562,592
41,1455475931.13700032234191894531,608
42,1455475931.20679998397827148438,520
43,1455475931.27652311325073242188,408
44,1455475931.347255706787109375,376
45,1455475931.41601133346557617188,448
46,1455475931.4884166717529296875,560
47,1455475931.5572109222412109375,608
48,1455475931.62701272964477539062,552
49,1455475931.69708275794982910156,440
50,1455475931.76661276817321777344,376
51,1455475931.835842132568359375,408
52,1455475931.90772986412048339844,520
53,1455475931.9775485992431640625,608
54,1455475932.04676914215087890625,568
55,1455475932.11712813377380371094,608
56,1455475932.18616890907287597656,552
57,1455475932.25628733634948730469,440
58,1455475932.32671666145324707031,376
59,1455475932.39749217033386230469,416
60,1455475932.46700978279113769531,528
61,1455475932.53660321235656738281,608
62,1455475932.60681462287902832031,584
63,1455475932.67650675773620605469,472
64,1455475932.74705338478088378906,384
65,1455475932.81670665740966796875,392
66,1455475932.88635969161987304688,488
67,1455475932.95586276054382324219,592
68,1455475933.02588820457458496094,608
69,1455475933.09754705429077148438,512
70,1455475933.16614532470703125,408
71,1455475933.23727846145629882812,376
72,1455475933.30650401115417480469,448
73,1455475933.3766994476318359375,560
74,1455475933.44730019569396972656,608
75,1455475933.51665782928466796875,552
76,1455475933.58683824539184570312,440
77,1455475933.65706348419189453125,376
78,1455475933.72657132148742675781,416
79,1455475933.79752492904663085938,528
80,1455475933.86664915084838867188,608
81,1455475933.9368686676025390625,584
82,1455475934.00729703903198242188,480
83,1455475934.07733464241027832031,384
84,1455475934.147373199462890625,384
85,1455475934.21687483787536621094,480
86,1455475934.28691244125366210938,584
87,1455475934.3562984466552734375,608
88,1455475934.42686796188354492188,520
89,1455475934.49754190444946289062,408
90,1455475934.56645512580871582031,376
91,1455475934.63664650917053222656,440
92,1455475934.70641732215881347656,552
93,1455475934.77620744705200195312,608
94,1455475934.84672403335571289062,560
95,1455475934.91728067398071289062,448
96,1455475934.98695063591003417969,376
97,1455475935.05642795562744140625,408
98,1455475935.12669301033020019531,520
99,1455475935.19690060615539550781,608
100,1455475935.26678824424743652344,592
101,1455475935.33796381950378417969,488
102,1455475935.40689873695373535156,392
103,1455475935.47646403312683105469,384
104,1455475935.54726433753967285156,480
105,1455475935.61635613441467285156,584
106,1455475935.68692994117736816406,608
107,1455475935.75690937042236328125,528
108,1455475935.82584309577941894531,416
109,1455475935.89715552330017089844,376
110,1455475935.96696448326110839844,440
111,1455475936.03669810295104980469,552
112,1455475936.10691356658935546875,608
113,1455475936.1775379180908203125,560
114,1455475936.24713158607482910156,448
115,1455475936.31659579277038574219,376
116,1455475936.38617038726806640625,400
117,1455475936.45634865760803222656,512
118,1455475936.52595925331115722656,600
119,1455475936.597743988037109375,592
120,1455475936.66684603691101074219,488
121,1455475936.73624968528747558594,392
122,1455475936.80662631988525390625,384
123,1455475936.87606692314147949219,472
124,1455475936.94692778587341308594,576
125,1455475937.01691222190856933594,608
126,1455475937.08579468727111816406,536
127,1455475937.15598368644714355469,424
128,1455475937.22654032707214355469,376
129,1455475937.29704546928405761719,432
130,1455475937.36655402183532714844,544
131,1455475937.43703317642211914062,608
132,1455475937.50583744049072265625,568
133,1455475937.57620716094970703125,456
134,1455475937.64657545089721679688,376
135,1455475937.7161579132080078125,400
136,1455475937.78640675544738769531,504
137,1455475937.8568897247314453125,600
138,1455475937.92640519142150878906,592
139,1455475937.99829053878784179688,496
140,1455475938.06659054756164550781,392
141,1455475938.13694047927856445312,376
142,1455475938.20658636093139648438,464
143,1455475938.27728128433227539062,576
144,1455475938.34739422798156738281,608
145,1455475938.41635751724243164062,536
146,1455475938.48634839057922363281,424
147,1455475938.55601978302001953125,376
148,1455475938.62681245803833007812,424
149,1455475938.69764351844787597656,544
150,1455475938.76686620712280273438,608
151,1455475938.83677506446838378906,576
152,1455475938.90686345100402832031,464
153,1455475938.97684311866760253906,376
154,1455475939.04878091812133789062,400
155,1455475939.11737227439880371094,504
156,1455475939.186298370361328125,600
157,1455475939.25684189796447753906,600
158,1455475939.32651877403259277344,504
159,1455475939.39745640754699707031,400
160,1455475939.46850538253784179688,376
161,1455475939.53692364692687988281,464
162,1455475939.60649228096008300781,568
163,1455475939.67664098739624023438,608
164,1455475939.74836301803588867188,544
165,1455475939.81673097610473632812,432
166,1455475939.88745450973510742188,376
167,1455475939.95755434036254882812,424
168,1455475940.02631211280822753906,536
169,1455475940.09729790687561035156,608
170,1455475940.16644763946533203125,576
171,1455475940.23588681221008300781,472
172,1455475940.30609631538391113281,384
173,1455475940.377101898193359375,392
174,1455475940.44731163978576660156,496
175,1455475940.5160465240478515625,592
176,1455475940.58681917190551757812,600
177,1455475940.65637731552124023438,512
178,1455475940.72830367088317871094,400
179,1455475940.797275543212890625,376
180,1455475940.86650443077087402344,456
181,1455475940.93609070777893066406,568
182,1455475941.00665283203125,504
183,1455475941.07645440101623535156,600
184,1455475941.14842772483825683594,592
185,1455475941.21710419654846191406,504
186,1455475941.28608989715576171875,400
187,1455475941.35689473152160644531,376
188,1455475941.42580771446228027344,464
189,1455475941.49859642982482910156,576
190,1455475941.56618809700012207031,608
191,1455475941.63767290115356445312,536
192,1455475941.70683956146240234375,424
193,1455475941.77627968788146972656,376
194,1455475941.84733748435974121094,424
195,1455475941.91586065292358398438,536
196,1455475941.98674082756042480469,608
197,1455475942.0571880340576171875,576
198,1455475942.12627196311950683594,464
199,1455475942.19921469688415527344,376
200,1455475942.26652932167053222656,392
201,1455475942.33620095252990722656,496
202,1455475942.40657830238342285156,592
203,1455475942.47733354568481445312,600
204,1455475942.54749059677124023438,504
205,1455475942.61602783203125,400
206,1455475942.68633198738098144531,376
207,1455475942.75634741783142089844,456
208,1455475942.82593297958374023438,568
209,1455475942.8979358673095703125,608
210,1455475942.96675443649291992188,544
211,1455475943.03642439842224121094,432
212,1455475943.10625100135803222656,376
213,1455475943.17593097686767578125,416
214,1455475943.24802327156066894531,536
215,1455475943.31862282752990722656,608
216,1455475943.38771104812622070312,576
217,1455475943.45668840408325195312,472
218,1455475943.52689647674560546875,384
219,1455475943.59856724739074707031,392
220,1455475943.6662731170654296875,488
221,1455475943.73719167709350585938,592
222,1455475943.80644631385803222656,600
223,1455475943.87625241279602050781,512
224,1455475943.94723296165466308594,400
225,1455475944.01638674736022949219,376
226,1455475944.08615136146545410156,448
227,1455475944.15770697593688964844,568
228,1455475944.22693991661071777344,608
229,1455475944.29735088348388671875,552
230,1455475944.36620330810546875,440
231,1455475944.43728923797607421875,376
232,1455475944.50642991065979003906,416
233,1455475944.57763719558715820312,528
234,1455475944.64648699760437011719,608
235,1455475944.71626210212707519531,584
236,1455475944.78666067123413085938,480
237,1455475944.85681486129760742188,384
238,1455475944.9275665283203125,392
239,1455475944.99745631217956542969,488
240,1455475945.06662702560424804688,592
241,1455475945.13734078407287597656,600
242,1455475945.20695567131042480469,520
243,1455475945.2768573760986328125,408
244,1455475945.3474941253662109375,376
245,1455475945.4178333282470703125,448
246,1455475945.48675966262817382812,560
247,1455475945.55712437629699707031,608
248,1455475945.62660765647888183594,560
249,1455475945.697643280029296875,440
250,1455475945.76688098907470703125,376
251,1455475945.837677001953125,416
252,1455475945.90688204765319824219,520
253,1455475945.97668218612670898438,608
254,1455475946.0471630096435546875,584
255,1455475946.11683440208435058594,480
256,1455475946.18782734870910644531,384
257,1455475946.25714635848999023438,384
258,1455475946.32682394981384277344,480
259,1455475946.39703583717346191406,584
260,1455475946.46672701835632324219,608
261,1455475946.53605175018310546875,528
262,1455475946.60650396347045898438,416
263,1455475946.67764425277709960938,376
264,1455475946.74732661247253417969,440
265,1455475946.81668829917907714844,552
266,1455475946.88655066490173339844,608
267,1455475946.95630025863647460938,560
268,1455475947.02592515945434570312,448
269,1455475947.09788203239440917969,376
270,1455475947.1663570404052734375,408
271,1455475947.23741888999938964844,520
272,1455475947.30688524246215820312,600
273,1455475947.37690114974975585938,592
274,1455475947.44911980628967285156,488
275,1455475947.51777005195617675781,392
276,1455475947.58642482757568359375,384
277,1455475947.65625524520874023438,472
278,1455475947.72641110420227050781,584
279,1455475947.79758286476135253906,608
280,1455475947.86814117431640625,528
281,1455475947.93686151504516601562,416
282,1455475948.00642299652099609375,376
283,1455475948.07611942291259765625,432
284,1455475948.14725184440612792969,552
285,1455475948.21703314781188964844,608
286,1455475948.28807878494262695312,560
287,1455475948.35866284370422363281,448
288,1455475948.42663741111755371094,376
289,1455475948.49651980400085449219,400
290,1455475948.56582760810852050781,512
291,1455475948.63634204864501953125,600
292,1455475948.7077579498291015625,592
293,1455475948.77654719352722167969,496
294,1455475948.84659099578857421875,392
295,1455475948.91616797447204589844,384
296,1455475948.98635172843933105469,472
297,1455475949.05635976791381835938,576
298,1455475949.12594771385192871094,608
299,1455475949.1976642608642578125,536
300,1455475949.26651501655578613281,424
301,1455475949.33666372299194335938,376
302,1455475949.4069957733154296875,432
303,1455475949.47631096839904785156,544
304,1455475949.54801893234252929688,608
305,1455475949.61746740341186523438,568
306,1455475949.68588137626647949219,456
307,1455475949.75670409202575683594,376
308,1455475949.82661533355712890625,400
309,1455475949.89662075042724609375,504
310,1455475949.96811079978942871094,600
311,1455475950.0376491546630859375,552
312,1455475950.10584044456481933594,608
313,1455475950.17612123489379882812,568
314,1455475950.24749636650085449219,448
315,1455475950.31615304946899414062,376
316,1455475950.38634014129638671875,408
317,1455475950.45741510391235351562,512
318,1455475950.52636051177978515625,600
319,1455475950.5969562530517578125,592
320,1455475950.66698575019836425781,488
321,1455475950.73611378669738769531,392
322,1455475950.80678510665893554688,384
323,1455475950.87706780433654785156,472
324,1455475950.94661116600036621094,576
325,1455475951.01642131805419921875,608
326,1455475951.0863361358642578125,536
327,1455475951.15795660018920898438,416
328,1455475951.22735095024108886719,376
329,1455475951.29741525650024414062,432
330,1455475951.36682033538818359375,544
331,1455475951.43635678291320800781,608
332,1455475951.5061779022216796875,568
333,1455475951.5759525299072265625,456
334,1455475951.64706063270568847656,376
335,1455475951.71722531318664550781,400
336,1455475951.78650927543640136719,504
337,1455475951.85674786567687988281,600
338,1455475951.92706775665283203125,592
339,1455475951.99725890159606933594,496
340,1455475952.06611323356628417969,392
341,1455475952.13785195350646972656,384
342,1455475952.2059268951416015625,464
343,1455475952.27673554420471191406,576
344,1455475952.34810161590576171875,608
345,1455475952.41655468940734863281,536
346,1455475952.48672366142272949219,424
347,1455475952.55735015869140625,376
348,1455475952.62675905227661132812,424
349,1455475952.69702792167663574219,544
350,1455475952.76676273345947265625,608
351,1455475952.83629679679870605469,576
352,1455475952.90766048431396484375,464
353,1455475952.97745227813720703125,376
354,1455475953.04728770256042480469,400
355,1455475953.11627531051635742188,504
356,1455475953.18634819984436035156,600
357,1455475953.25673794746398925781,600
358,1455475953.32688736915588378906,504
359,1455475953.39801239967346191406,400
360,1455475953.46683764457702636719,376
361,1455475953.53680729866027832031,464
362,1455475953.60681796073913574219,568
363,1455475953.67598319053649902344,608
364,1455475953.74685549736022949219,544
365,1455475953.81740069389343261719,432
366,1455475953.88657546043395996094,376
367,1455475953.95615243911743164062,424
368,1455475954.02669501304626464844,536
369,1455475954.09687137603759765625,608
370,1455475954.16659140586853027344,576
371,1455475954.23688077926635742188,464
372,1455475954.30621480941772460938,384
373,1455475954.37662577629089355469,392
374,1455475954.44698429107666015625,496
375,1455475954.51666855812072753906,592
376,1455475954.58651614189147949219,600
377,1455475954.65761399269104003906,504
378,1455475954.72702550888061523438,400
379,1455475954.79702925682067871094,376
380,1455475954.8662052154541015625,456
381,1455475954.93625116348266601562,568
382,1455475955.00701355934143066406,608
383,1455475955.07748341560363769531,544
384,1455475955.14730358123779296875,432
385,1455475955.21591520309448242188,376
386,1455475955.2869167327880859375,416
387,1455475955.35622453689575195312,528
388,1455475955.42664575576782226562,608
389,1455475955.49741315841674804688,576
390,1455475955.56637120246887207031,472
391,1455475955.63626551628112792969,384
392,1455475955.70684552192687988281,392
393,1455475955.77605986595153808594,488
394,1455475955.84743595123291015625,592
395,1455475955.91762137413024902344,600
396,1455475955.98622441291809082031,512
397,1455475956.05689644813537597656,408
398,1455475956.12606930732727050781,376
399,1455475956.19743990898132324219,448
400,1455475956.26841783523559570312,568
401,1455475956.33679223060607910156,608
402,1455475956.40633654594421386719,552
403,1455475956.47670960426330566406,440
404,1455475956.54687428474426269531,376
405,1455475956.61661171913146972656,416
406,1455475956.68823266029357910156,528
407,1455475956.75756168365478515625,608
408,1455475956.82668781280517578125,584
409,1455475956.89676547050476074219,480
410,1455475956.96699404716491699219,384
411,1455475957.03671717643737792969,384
412,1455475957.10801434516906738281,488
413,1455475957.17860841751098632812,592
414,1455475957.246585845947265625,608
415,1455475957.31652522087097167969,520
416,1455475957.38684320449829101562,408
417,1455475957.45590567588806152344,376
418,1455475957.52632403373718261719,440
419,1455475957.60442447662353515625,568
420,1455475957.66702365875244140625,608
421,1455475957.7366237640380859375,560
422,1455475957.80656838417053222656,448
423,1455475957.87686276435852050781,376
424,1455475957.94889307022094726562,416
425,1455475958.01762151718139648438,520
426,1455475958.08664584159851074219,608
427,1455475958.15607666969299316406,592
428,1455475958.22648882865905761719,488
429,1455475958.29793500900268554688,384
430,1455475958.36792755126953125,384
431,1455475958.4373188018798828125,480
432,1455475958.505847930908203125,584
433,1455475958.57637095451354980469,608
434,1455475958.6467990875244140625,528
435,1455475958.71644115447998046875,416
436,1455475958.78647923469543457031,376
437,1455475958.85693454742431640625,440
438,1455475958.92655897140502929688,552
439,1455475958.99695420265197753906,608
440,1455475959.06638336181640625,592
441,1455475959.13665556907653808594,608
442,1455475959.20807433128356933594,512
443,1455475959.27707982063293457031,408
444,1455475959.34680151939392089844,376
445,1455475959.41588735580444335938,448
446,1455475959.4860668182373046875,560
447,1455475959.55670046806335449219,608
448,1455475959.62584900856018066406,560
449,1455475959.69750642776489257812,440
450,1455475959.76609349250793457031,376
451,1455475959.83638930320739746094,408
452,1455475959.90623617172241210938,520
453,1455475959.97687458992004394531,608
454,1455475960.04851984977722167969,584
455,1455475960.11691141128540039062,480
456,1455475960.1858806610107421875,384
457,1455475960.25582766532897949219,384
458,1455475960.32652783393859863281,480
459,1455475960.39679646492004394531,584
460,1455475960.46668219566345214844,608
461,1455475960.53774046897888183594,520
462,1455475960.60580301284790039062,416
463,1455475960.67612004280090332031,376
464,1455475960.74838972091674804688,440
465,1455475960.81639456748962402344,552
466,1455475960.88774180412292480469,608
467,1455475960.95712423324584960938,560
468,1455475961.0264606475830078125,448
469,1455475961.0966968536376953125,376
470,1455475961.16610050201416015625,408
471,1455475961.23711276054382324219,520
472,1455475961.30657219886779785156,600
473,1455475961.37769532203674316406,592
474,1455475961.44747710227966308594,488
475,1455475961.51763033866882324219,392
476,1455475961.58707833290100097656,384
477,1455475961.65637445449829101562,472
478,1455475961.72639203071594238281,584
479,1455475961.79821515083312988281,608
480,1455475961.86690068244934082031,528
481,1455475961.93681240081787109375,416
482,1455475962.00699019432067871094,376
483,1455475962.0766544342041015625,432
484,1455475962.14723539352416992188,552
485,1455475962.21775913238525390625,608
486,1455475962.28641271591186523438,568
487,1455475962.35657501220703125,456
488,1455475962.426792144775390625,376
489,1455475962.61740517616271972656,584
490,1455475962.62544751167297363281,592
491,1455475962.63802170753479003906,600
492,1455475962.70609045028686523438,592
493,1455475962.77702546119689941406,496
494,1455475962.84708523750305175781,392
495,1455475962.91636180877685546875,384
496,1455475962.98670220375061035156,472
497,1455475963.05720591545104980469,576
498,1455475963.12639379501342773438,608
499,1455475963.19733548164367675781,536
500,1455475963.26675295829772949219,424
501,1455475963.33620715141296386719,376
502,1455475963.40623593330383300781,432
503,1455475963.47728991508483886719,544
