id, time (s), size (bits)
0,1455475928.24601292610168457031,376
1,1455475928.2957019805908203125,432
2,1455475928.34597706794738769531,512
3,1455475928.39552354812622070312,584
4,1455475928.44636940956115722656,608
5,1455475928.49589610099792480469,584
6,1455475928.54596066474914550781,512
7,1455475928.59553050994873046875,424
8,1455475928.64652395248413085938,376
9,1455475928.69577503204345703125,384
10,1455475928.74628758430480957031,440
11,1455475928.79567170143127441406,520
12,1455475928.8459930419921875,592
13,1455475928.89654588699340820312,608
14,1455475928.94607973098754882812,576
15,1455475928.9963054656982421875,496
16,1455475929.04574656486511230469,416
17,1455475929.09572267532348632812,376
18,1455475929.1462039947509765625,384
19,1455475929.19591426849365234375,448
20,1455475929.24674177169799804688,536
21,1455475929.29631733894348144531,592
22,1455475929.3459949493408203125,608
23,1455475929.39627099037170410156,568
24,1455475929.44559383392333984375,488
25,1455475929.49637770652770996094,408
26,1455475929.54566335678100585938,376
27,1455475929.59653162956237792969,392
28,1455475929.64596724510192871094,456
29,1455475929.69577884674072265625,536
30,1455475929.74640226364135742188,600
31,1455475929.79623198509216308594,608
32,1455475929.84685301780700683594,560
33,1455475929.89648556709289550781,480
34,1455475929.94580030441284179688,408
35,1455475929.99642014503479003906,376
36,1455475930.046787261962890625,400
37,1455475930.09621548652648925781,464
38,1455475930.14693760871887207031,552
39,1455475930.19593214988708496094,600
40,1455475930.24599003791809082031,608
41,1455475930.29587554931640625,552
42,1455475930.34728002548217773438,472
43,1455475930.39630818367004394531,400
44,1455475930.44668817520141601562,376
45,1455475930.49552011489868164062,400
46,1455475930.54599642753601074219,472
47,1455475930.59684824943542480469,560
48,1455475930.64858722686767578125,608
49,1455475930.69608616828918457031,600
50,1455475930.74576640129089355469,544
51,1455475930.79601216316223144531,464
52,1455475930.84769797325134277344,392
53,1455475930.89589095115661621094,376
54,1455475930.94773244857788085938,408
55,1455475930.9967746734619140625,488
56,1455475931.04596972465515136719,568
57,1455475931.09620165824890136719,608
58,1455475931.14601683616638183594,600
59,1455475931.1969432830810546875,536
60,1455475931.24963474273681640625,448
61,1455475931.29634428024291992188,392
62,1455475931.3464641571044921875,376
63,1455475931.39633631706237792969,416
64,1455475931.44572138786315917969,496
65,1455475931.49650979042053222656,576
66,1455475931.54771304130554199219,608
67,1455475931.59597706794738769531,592
68,1455475931.64558362960815429688,528
69,1455475931.69630098342895507812,440
70,1455475931.74566650390625,384
71,1455475931.79546856880187988281,376
72,1455475931.84599971771240234375,424
73,1455475931.89589381217956542969,504
74,1455475931.94608402252197265625,576
75,1455475931.99547481536865234375,608
76,1455475932.046016693115234375,568
77,1455475932.09581756591796875,608
78,1455475932.14594507217407226562,600
79,1455475932.1962680816650390625,536
80,1455475932.2458515167236328125,456
81,1455475932.29621791839599609375,392
82,1455475932.34627079963684082031,376
83,1455475932.39599895477294921875,416
84,1455475932.44637632369995117188,496
85,1455475932.49576854705810546875,568
86,1455475932.54557085037231445312,608
87,1455475932.59642648696899414062,592
88,1455475932.64765024185180664062,520
89,1455475932.69652652740478515625,440
90,1455475932.74632740020751953125,384
91,1455475932.79598355293273925781,376
92,1455475932.84694385528564453125,424
93,1455475932.89595794677734375,504
94,1455475932.94813799858093261719,584
95,1455475932.99610137939453125,608
96,1455475933.04548430442810058594,592
97,1455475933.09675359725952148438,520
98,1455475933.14623403549194335938,432
99,1455475933.19550657272338867188,384
100,1455475933.24615716934204101562,376
101,1455475933.29691147804260253906,432
102,1455475933.34792017936706542969,520
103,1455475933.39546442031860351562,584
104,1455475933.44656395912170410156,608
105,1455475933.49596142768859863281,584
106,1455475933.54649090766906738281,504
107,1455475933.59572505950927734375,424
108,1455475933.64758515357971191406,376
109,1455475933.69709992408752441406,384
110,1455475933.74626493453979492188,440
111,1455475933.79681825637817382812,520
112,1455475933.84578108787536621094,592
113,1455475933.89629912376403808594,608
114,1455475933.94585776329040527344,576
115,1455475933.99791359901428222656,496
116,1455475934.04586243629455566406,416
117,1455475934.09712171554565429688,376
118,1455475934.14666295051574707031,384
119,1455475934.19633150100708007812,448
120,1455475934.24566435813903808594,528
121,1455475934.29549455642700195312,592
122,1455475934.34732270240783691406,608
123,1455475934.39550662040710449219,568
124,1455475934.44633460044860839844,488
125,1455475934.49607872962951660156,416
126,1455475934.546459197998046875,376
127,1455475934.59623551368713378906,392
128,1455475934.64648914337158203125,456
129,1455475934.69676184654235839844,544
130,1455475934.74617981910705566406,600
131,1455475934.79620671272277832031,608
132,1455475934.84599089622497558594,560
133,1455475934.89545917510986328125,480
134,1455475934.94606041908264160156,408
135,1455475934.9954967498779296875,376
136,1455475935.04729199409484863281,400
137,1455475935.0961513519287109375,464
138,1455475935.145481109619140625,544
139,1455475935.1960811614990234375,600
140,1455475935.24603986740112304688,608
141,1455475935.29633498191833496094,552
142,1455475935.34803676605224609375,464
143,1455475935.3973102569580078125,400
144,1455475935.44838666915893554688,376
145,1455475935.49602150917053222656,400
146,1455475935.54638767242431640625,480
147,1455475935.59581160545349121094,560
148,1455475935.64638352394104003906,608
149,1455475935.696163177490234375,600
150,1455475935.7482128143310546875,544
151,1455475935.79607081413269042969,464
152,1455475935.84561014175415039062,392
153,1455475935.89644122123718261719,376
154,1455475935.94625616073608398438,408
155,1455475935.99580979347229003906,488
156,1455475936.0465564727783203125,568
157,1455475936.09798884391784667969,608
158,1455475936.14773774147033691406,600
159,1455475936.19546294212341308594,536
160,1455475936.24630045890808105469,456
161,1455475936.29619669914245605469,392
162,1455475936.34649538993835449219,376
163,1455475936.39600729942321777344,416
164,1455475936.44609808921813964844,496
165,1455475936.49599361419677734375,568
166,1455475936.54551029205322265625,608
167,1455475936.59641170501708984375,592
168,1455475936.64650177955627441406,528
169,1455475936.69583392143249511719,440
170,1455475936.74608850479125976562,384
171,1455475936.79717850685119628906,376
172,1455475936.84644317626953125,424
173,1455475936.89637517929077148438,504
174,1455475936.94613146781921386719,576
175,1455475936.99550199508666992188,608
176,1455475937.04587554931640625,584
177,1455475937.09580349922180175781,520
178,1455475937.14806222915649414062,432
179,1455475937.19698548316955566406,376
180,1455475937.24577546119689941406,376
181,1455475937.29631447792053222656,432
182,1455475937.3455371856689453125,512
183,1455475937.39660286903381347656,584
184,1455475937.44591403007507324219,608
185,1455475937.49562048912048339844,584
186,1455475937.54563379287719726562,512
187,1455475937.59596347808837890625,424
188,1455475937.64588880538940429688,376
189,1455475937.69627881050109863281,384
190,1455475937.74575042724609375,440
191,1455475937.79663538932800292969,520
192,1455475937.84788775444030761719,592
193,1455475937.89592909812927246094,608
194,1455475937.94624996185302734375,576
195,1455475937.99552130699157714844,496
196,1455475938.04567980766296386719,416
197,1455475938.09651041030883789062,376
198,1455475938.14585328102111816406,384
199,1455475938.19745516777038574219,448
200,1455475938.24562025070190429688,528
201,1455475938.29595541954040527344,592
202,1455475938.34650945663452148438,608
203,1455475938.39581704139709472656,568
204,1455475938.447628021240234375,488
205,1455475938.49624228477478027344,408
206,1455475938.54812884330749511719,376
207,1455475938.59607243537902832031,392
208,1455475938.64622616767883300781,456
209,1455475938.69611287117004394531,544
210,1455475938.74583578109741210938,600
211,1455475938.79551029205322265625,608
212,1455475938.8455905914306640625,560
213,1455475938.89783024787902832031,480
214,1455475938.94638681411743164062,408
215,1455475938.99617838859558105469,376
216,1455475939.04798078536987304688,400
217,1455475939.09667706489562988281,464
218,1455475939.14635348320007324219,552
219,1455475939.19615101814270019531,600
220,1455475939.247894287109375,608
221,1455475939.29603719711303710938,552
222,1455475939.34633517265319824219,472
223,1455475939.39672374725341796875,400
224,1455475939.44601202011108398438,376
225,1455475939.49625110626220703125,400
226,1455475939.54588484764099121094,472
227,1455475939.59788990020751953125,560
228,1455475939.64865636825561523438,608
229,1455475939.69629955291748046875,600
230,1455475939.745609283447265625,544
231,1455475939.79598283767700195312,464
232,1455475939.84549403190612792969,392
233,1455475939.89647603034973144531,376
234,1455475939.94823122024536132812,408
235,1455475939.99626922607421875,488
236,1455475940.04588198661804199219,568
237,1455475940.0965118408203125,608
238,1455475940.14543914794921875,600
239,1455475940.19644379615783691406,536
240,1455475940.2475738525390625,448
241,1455475940.29801893234252929688,384
242,1455475940.34827303886413574219,376
243,1455475940.39594769477844238281,416
244,1455475940.44659423828125,496
245,1455475940.49634003639221191406,576
246,1455475940.54568219184875488281,608
247,1455475940.59589934349060058594,592
248,1455475940.64758539199829101562,528
249,1455475940.69629788398742675781,440
250,1455475940.74610662460327148438,384
251,1455475940.79581928253173828125,376
252,1455475940.8471622467041015625,424
253,1455475940.89626240730285644531,504
254,1455475940.94600844383239746094,576
255,1455475940.99695134162902832031,608
256,1455475941.04731678962707519531,568
257,1455475941.0964298248291015625,608
258,1455475941.14762663841247558594,600
259,1455475941.19625902175903320312,536
260,1455475941.24591112136840820312,456
261,1455475941.29590320587158203125,392
262,1455475941.34643983840942382812,376
263,1455475941.39732480049133300781,416
264,1455475941.44653987884521484375,496
265,1455475941.49782824516296386719,576
266,1455475941.54553294181823730469,608
267,1455475941.59589552879333496094,592
268,1455475941.6466522216796875,528
269,1455475941.69685387611389160156,440
270,1455475941.74748921394348144531,384
271,1455475941.79614186286926269531,376
272,1455475941.846530914306640625,424
273,1455475941.89613842964172363281,504
274,1455475941.94606256484985351562,576
275,1455475941.99666523933410644531,608
276,1455475942.04906558990478515625,584
277,1455475942.09610724449157714844,520
278,1455475942.14599180221557617188,432
279,1455475942.1963367462158203125,376
280,1455475942.24588990211486816406,376
281,1455475942.29678630828857421875,432
282,1455475942.34629201889038085938,512
283,1455475942.39775204658508300781,584
284,1455475942.44587278366088867188,608
285,1455475942.49594569206237792969,584
286,1455475942.54678869247436523438,504
287,1455475942.59668135643005371094,424
288,1455475942.64565300941467285156,376
289,1455475942.69751644134521484375,384
290,1455475942.74766278266906738281,440
291,1455475942.79570150375366210938,520
292,1455475942.84664869308471679688,592
293,1455475942.89648103713989257812,608
294,1455475942.94633007049560546875,576
295,1455475942.99644780158996582031,496
296,1455475943.04643869400024414062,416
297,1455475943.09724545478820800781,376
298,1455475943.14586210250854492188,384
299,1455475943.19587159156799316406,448
300,1455475943.24551558494567871094,528
301,1455475943.2957916259765625,592
302,1455475943.34622597694396972656,608
303,1455475943.39700341224670410156,568
304,1455475943.44626402854919433594,488
305,1455475943.49658966064453125,408
306,1455475943.54592084884643554688,376
307,1455475943.59772896766662597656,392
308,1455475943.64581179618835449219,456
309,1455475943.69578242301940917969,536
310,1455475943.74615693092346191406,600
311,1455475943.79619860649108886719,608
312,1455475943.84701251983642578125,560
313,1455475943.89602494239807128906,480
314,1455475943.94644141197204589844,408
315,1455475943.9965419769287109375,376
316,1455475944.04623961448669433594,400
317,1455475944.09655165672302246094,464
318,1455475944.14793252944946289062,552
319,1455475944.19761776924133300781,608
320,1455475944.24557352066040039062,608
321,1455475944.29664349555969238281,552
322,1455475944.345714569091796875,472
323,1455475944.3963165283203125,400
324,1455475944.44596791267395019531,376
325,1455475944.49791669845581054688,408
326,1455475944.54609060287475585938,472
327,1455475944.59546375274658203125,560
328,1455475944.64576554298400878906,608
329,1455475944.69652986526489257812,600
330,1455475944.74603772163391113281,544
331,1455475944.79645776748657226562,464
332,1455475944.84789133071899414062,392
333,1455475944.89638805389404296875,376
334,1455475944.94597649574279785156,408
335,1455475944.99607419967651367188,488
336,1455475945.046352386474609375,568
337,1455475945.09636616706848144531,608
338,1455475945.1464595794677734375,600
339,1455475945.197917938232421875,536
340,1455475945.24557852745056152344,456
341,1455475945.29602289199829101562,392
342,1455475945.34658074378967285156,376
343,1455475945.39622735977172851562,416
344,1455475945.44584560394287109375,496
345,1455475945.49556183815002441406,568
346,1455475945.54626607894897460938,608
347,1455475945.59615349769592285156,592
348,1455475945.64620804786682128906,528
349,1455475945.69645047187805175781,440
350,1455475945.74632215499877929688,384
351,1455475945.79763364791870117188,376
352,1455475945.8457202911376953125,424
353,1455475945.89800977706909179688,504
354,1455475945.94554233551025390625,576
355,1455475945.99636363983154296875,608
356,1455475946.04644322395324707031,584
357,1455475946.09590101242065429688,520
358,1455475946.14648342132568359375,432
359,1455475946.196258544921875,384
360,1455475946.24767661094665527344,376
361,1455475946.29573607444763183594,432
362,1455475946.34556484222412109375,512
363,1455475946.39618325233459472656,584
364,1455475946.44607043266296386719,608
365,1455475946.49568128585815429688,584
366,1455475946.54595661163330078125,512
367,1455475946.59785866737365722656,424
368,1455475946.64612030982971191406,376
369,1455475946.69633984565734863281,384
370,1455475946.74656462669372558594,440
371,1455475946.79607319831848144531,520
372,1455475946.84637808799743652344,592
373,1455475946.89642047882080078125,608
374,1455475946.94820094108581542969,576
375,1455475946.99651050567626953125,496
376,1455475947.04574656486511230469,416
377,1455475947.09648489952087402344,376
378,1455475947.14784550666809082031,384
379,1455475947.19616866111755371094,448
380,1455475947.24643015861511230469,536
381,1455475947.29685115814208984375,600
382,1455475947.34631133079528808594,608
383,1455475947.39599013328552246094,568
384,1455475947.44828343391418457031,488
385,1455475947.49599194526672363281,416
386,1455475947.54573369026184082031,376
387,1455475947.59613728523254394531,392
388,1455475947.6477451324462890625,464
389,1455475947.69640398025512695312,544
390,1455475947.7461109161376953125,600
391,1455475947.79671835899353027344,608
392,1455475947.84642195701599121094,560
393,1455475947.89617896080017089844,480
394,1455475947.94582343101501464844,408
395,1455475947.99749422073364257812,376
396,1455475948.04933929443359375,400
397,1455475948.09605956077575683594,464
398,1455475948.1464214324951171875,552
399,1455475948.19617915153503417969,600
400,1455475948.24569034576416015625,608
401,1455475948.29632902145385742188,552
402,1455475948.34592413902282714844,472
403,1455475948.3956661224365234375,400
404,1455475948.44608259201049804688,376
405,1455475948.49580454826354980469,400
406,1455475948.54609227180480957031,472
407,1455475948.59586572647094726562,560
408,1455475948.64740991592407226562,608
409,1455475948.69771599769592285156,600
410,1455475948.74548578262329101562,544
411,1455475948.7957401275634765625,464
412,1455475948.84573817253112792969,392
413,1455475948.89656376838684082031,376
414,1455475948.94598698616027832031,408
415,1455475948.99661374092102050781,488
416,1455475949.04827523231506347656,568
417,1455475949.09611773490905761719,608
418,1455475949.14636588096618652344,600
419,1455475949.19622802734375,536
420,1455475949.24764204025268554688,448
421,1455475949.29649949073791503906,384
422,1455475949.34657907485961914062,376
423,1455475949.39658188819885253906,416
424,1455475949.44547557830810546875,496
425,1455475949.49613785743713378906,576
426,1455475949.54729437828063964844,608
427,1455475949.59568762779235839844,592
428,1455475949.646331787109375,528
429,1455475949.69548106193542480469,448
430,1455475949.74769353866577148438,384
431,1455475949.79803991317749023438,376
432,1455475949.84797358512878417969,424
433,1455475949.89590692520141601562,504
434,1455475949.94568419456481933594,576
435,1455475949.99580216407775878906,608
436,1455475950.04645967483520507812,568
437,1455475950.09638643264770507812,608
438,1455475950.14795231819152832031,600
439,1455475950.19604897499084472656,536
440,1455475950.24668383598327636719,448
441,1455475950.29624867439270019531,392
442,1455475950.34589910507202148438,376
443,1455475950.39636111259460449219,416
444,1455475950.44669175148010253906,496
445,1455475950.49827075004577636719,576
446,1455475950.54605269432067871094,608
447,1455475950.59619164466857910156,592
448,1455475950.64625859260559082031,528
449,1455475950.69579935073852539062,448
450,1455475950.74624896049499511719,384
451,1455475950.79711985588073730469,376
452,1455475950.8474712371826171875,424
453,1455475950.89581036567687988281,504
454,1455475950.94586491584777832031,576
455,1455475950.996913909912109375,608
456,1455475951.04629635810852050781,584
457,1455475951.09735584259033203125,512
458,1455475951.14680433273315429688,432
459,1455475951.19762110710144042969,376
460,1455475951.24622297286987304688,376
461,1455475951.29596018791198730469,432
462,1455475951.34645509719848632812,512
463,1455475951.3954315185546875,584
464,1455475951.44627976417541503906,608
465,1455475951.49551701545715332031,584
466,1455475951.54570984840393066406,512
467,1455475951.59593868255615234375,424
468,1455475951.64634943008422851562,376
469,1455475951.69647550582885742188,384
470,1455475951.746059417724609375,440
471,1455475951.79622364044189453125,520
472,1455475951.85069680213928222656,592
473,1455475951.89807939529418945312,608
474,1455475951.94581818580627441406,576
475,1455475951.99651789665222167969,496
476,1455475952.04632163047790527344,416
477,1455475952.09621500968933105469,376
478,1455475952.14589595794677734375,384
479,1455475952.19562554359436035156,448
480,1455475952.24837493896484375,536
481,1455475952.29640412330627441406,592
482,1455475952.34548974037170410156,608
483,1455475952.39629268646240234375,568
484,1455475952.44629025459289550781,488
485,1455475952.49678206443786621094,408
486,1455475952.54671239852905273438,376
487,1455475952.59745550155639648438,392
488,1455475952.64637899398803710938,456
489,1455475952.69608640670776367188,544
490,1455475952.74576902389526367188,600
491,1455475952.79653167724609375,608
492,1455475952.84642267227172851562,560
493,1455475952.89740777015686035156,480
494,1455475952.94610238075256347656,408
495,1455475952.99638080596923828125,376
496,1455475953.04633998870849609375,400
497,1455475953.09662604331970214844,464
498,1455475953.14624166488647460938,552
499,1455475953.19631719589233398438,608
500,1455475953.24775624275207519531,608
501,1455475953.29644370079040527344,552
502,1455475953.34548854827880859375,472
503,1455475953.39668679237365722656,400
504,1455475953.44583153724670410156,376
505,1455475953.4974765777587890625,408
