id, time (s), size (bits)
0,1455735726.29477572441101074219,944
1,1455735726.34559941291809082031,952
2,1455735726.39519166946411132812,960
3,1455735726.44577574729919433594,968
4,1455735726.49511122703552246094,976
5,1455735726.54580998420715332031,984
6,1455735726.59558868408203125,992
7,1455735726.64817953109741210938,1000
8,1455735726.69476175308227539062,1000
9,1455735726.74509406089782714844,1008
10,1455735726.79556488990783691406,1016
11,1455735726.84480762481689453125,1024
12,1455735726.89520621299743652344,1032
13,1455735726.94544434547424316406,1040
14,1455735726.99492239952087402344,1048
15,1455735727.04546451568603515625,1056
16,1455735727.09487628936767578125,1056
17,1455735727.14459466934204101562,1064
18,1455735727.19498991966247558594,1072
19,1455735727.24541687965393066406,1072
20,1455735727.29449605941772460938,1080
21,1455735727.34480834007263183594,1088
22,1455735727.39511084556579589844,1088
23,1455735727.445598602294921875,1096
24,1455735727.4948978424072265625,1096
25,1455735727.5450496673583984375,1104
26,1455735727.59545731544494628906,1104
27,1455735727.64462327957153320312,1112
28,1455735727.69510531425476074219,1112
29,1455735727.74543023109436035156,1120
30,1455735727.79475545883178710938,1120
31,1455735727.84501814842224121094,1120
32,1455735727.89547395706176757812,1128
33,1455735727.94487524032592773438,1128
34,1455735727.99522614479064941406,1128
35,1455735728.04486393928527832031,1128
36,1455735728.09527087211608886719,1128
37,1455735728.14460325241088867188,1128
38,1455735728.19494676589965820312,1128
39,1455735728.24538207054138183594,1128
40,1455735728.2945270538330078125,1128
41,1455735728.34486317634582519531,1128
42,1455735728.39516806602478027344,1128
43,1455735728.44547772407531738281,1128
44,1455735728.495128631591796875,1128
45,1455735728.54561853408813476562,1128
46,1455735728.595096588134765625,1128
47,1455735728.645603179931640625,1120
48,1455735728.69532990455627441406,1120
49,1455735728.74488210678100585938,1120
50,1455735728.79547238349914550781,1112
51,1455735728.8450145721435546875,1112
52,1455735728.89551281929016113281,1112
53,1455735728.94513654708862304688,1104
54,1455735728.99480748176574707031,1104
55,1455735729.04568052291870117188,1096
56,1455735729.09538674354553222656,1088
57,1455735729.14521074295043945312,1088
58,1455735729.19473481178283691406,1080
59,1455735729.24540972709655761719,1080
60,1455735729.29507589340209960938,1072
61,1455735729.34476518630981445312,1064
62,1455735729.39548563957214355469,1056
63,1455735729.44501638412475585938,1056
64,1455735729.49465250968933105469,1048
65,1455735729.54526543617248535156,1040
66,1455735729.59473705291748046875,1032
67,1455735729.64526081085205078125,1024
68,1455735729.69493532180786132812,1016
69,1455735729.74550151824951171875,1016
70,1455735729.79499840736389160156,1008
71,1455735729.84561419486999511719,1000
72,1455735729.89514803886413574219,992
73,1455735729.94464230537414550781,984
74,1455735729.99521589279174804688,976
75,1455735730.04502511024475097656,968
76,1455735730.09465837478637695312,960
77,1455735730.14539122581481933594,952
78,1455735730.19497561454772949219,944
79,1455735730.2454681396484375,936
80,1455735730.29521965980529785156,928
81,1455735730.34563541412353515625,920
82,1455735730.39518690109252929688,912
83,1455735730.44551873207092285156,904
84,1455735730.49521183967590332031,896
85,1455735730.54463410377502441406,888
86,1455735730.59511613845825195312,880
87,1455735730.64551401138305664062,864
88,1455735730.69497466087341308594,856
89,1455735730.74557852745056152344,848
90,1455735730.79493832588195800781,840
91,1455735730.84551143646240234375,832
92,1455735730.89499068260192871094,824
93,1455735730.94550490379333496094,816
94,1455735730.99506449699401855469,808
95,1455735731.0457611083984375,800
96,1455735731.09545207023620605469,792
97,1455735731.14488863945007324219,784
98,1455735731.19539713859558105469,784
99,1455735731.24479007720947265625,776
100,1455735731.29535412788391113281,768
101,1455735731.34464049339294433594,760
102,1455735731.39534330368041992188,752
103,1455735731.44495105743408203125,744
104,1455735731.49556326866149902344,736
105,1455735731.54501438140869140625,736
106,1455735731.59541034698486328125,728
107,1455735731.64505767822265625,720
108,1455735731.69537448883056640625,712
109,1455735731.74496698379516601562,712
110,1455735731.79546785354614257812,704
111,1455735731.844997406005859375,696
112,1455735731.89551877975463867188,696
113,1455735731.94509029388427734375,688
114,1455735731.99555754661560058594,688
115,1455735732.04513216018676757812,680
116,1455735732.09489536285400390625,680
117,1455735732.14537858963012695312,672
118,1455735732.19510006904602050781,672
119,1455735732.2454814910888671875,664
120,1455735732.29510378837585449219,664
121,1455735732.34552073478698730469,664
122,1455735732.39503312110900878906,656
123,1455735732.4453563690185546875,656
124,1455735732.49486041069030761719,656
125,1455735732.54553174972534179688,656
126,1455735732.59496569633483886719,656
127,1455735732.64566254615783691406,656
128,1455735732.69506573677062988281,656
129,1455735732.74522566795349121094,656
130,1455735732.79464626312255859375,656
131,1455735732.84514832496643066406,656
132,1455735732.89555621147155761719,656
133,1455735732.94499325752258300781,656
134,1455735732.99478411674499511719,656
135,1455735733.04534745216369628906,656
136,1455735733.09515714645385742188,656
137,1455735733.14558434486389160156,664
138,1455735733.19513034820556640625,664
139,1455735733.24560594558715820312,664
140,1455735733.29519343376159667969,672
141,1455735733.34553003311157226562,672
142,1455735733.39485526084899902344,672
143,1455735733.44522261619567871094,680
144,1455735733.49544167518615722656,680
145,1455735733.54489111900329589844,688
146,1455735733.59508156776428222656,696
147,1455735733.64544415473937988281,696
148,1455735733.69457864761352539062,704
149,1455735733.74493861198425292969,704
150,1455735733.79512143135070800781,712
151,1455735733.84528017044067382812,720
152,1455735733.8945331573486328125,728
153,1455735733.94459748268127441406,728
154,1455735733.9950885772705078125,736
155,1455735734.04542946815490722656,744
156,1455735734.09572887420654296875,752
157,1455735734.14500379562377929688,760
158,1455735734.19526433944702148438,768
159,1455735734.24549198150634765625,768
160,1455735734.2946720123291015625,776
161,1455735734.34494900703430175781,784
162,1455735734.3951854705810546875,792
163,1455735734.44560599327087402344,800
164,1455735734.49481415748596191406,808
165,1455735734.54507207870483398438,816
166,1455735734.59525394439697265625,824
167,1455735734.64554953575134277344,832
168,1455735734.69478702545166015625,840
169,1455735734.74496555328369140625,848
170,1455735734.79544901847839355469,856
171,1455735734.84457898139953613281,864
172,1455735734.89482879638671875,872
173,1455735734.94494509696960449219,880
174,1455735734.99530434608459472656,888
175,1455735735.04574823379516601562,896
176,1455735735.09529876708984375,904
177,1455735735.14562845230102539062,920
178,1455735735.194915771484375,928
179,1455735735.24538755416870117188,936
180,1455735735.294544219970703125,944
181,1455735735.34490060806274414062,952
182,1455735735.39526343345642089844,960
183,1455735735.44487643241882324219,968
184,1455735735.49539971351623535156,976
185,1455735735.54501390457153320312,984
186,1455735735.59551739692687988281,992
187,1455735735.64503264427185058594,1000
188,1455735735.69476413726806640625,1000
189,1455735735.74524259567260742188,1008
190,1455735735.79488778114318847656,1016
191,1455735735.84534931182861328125,1024
192,1455735735.89497327804565429688,1032
193,1455735735.94528818130493164062,1040
194,1455735735.99480962753295898438,1048
195,1455735736.04544854164123535156,1056
196,1455735736.09501123428344726562,1056
197,1455735736.14459252357482910156,1064
198,1455735736.19498872756958007812,1072
199,1455735736.24537897109985351562,1072
200,1455735736.29476284980773925781,1080
201,1455735736.34527754783630371094,1088
202,1455735736.39458203315734863281,1088
203,1455735736.44503831863403320312,1096
204,1455735736.49545049667358398438,1096
205,1455735736.54485464096069335938,1104
206,1455735736.59555459022521972656,1104
207,1455735736.645053863525390625,1112
208,1455735736.69481945037841796875,1112
209,1455735736.74532961845397949219,1120
210,1455735736.79486870765686035156,1120
211,1455735736.84534358978271484375,1120
212,1455735736.89482212066650390625,1128
213,1455735736.94519829750061035156,1128
214,1455735736.99558210372924804688,1128
215,1455735737.04530000686645507812,1128
216,1455735737.09482526779174804688,1128
217,1455735737.14539098739624023438,1128
218,1455735737.19491267204284667969,1128
219,1455735737.24549460411071777344,1128
220,1455735737.29488682746887207031,1128
221,1455735737.34544301033020019531,1128
222,1455735737.39492368698120117188,1128
223,1455735737.44526195526123046875,1128
224,1455735737.49483728408813476562,1128
225,1455735737.54534697532653808594,1128
226,1455735737.59481835365295410156,1128
227,1455735737.6452274322509765625,1120
228,1455735737.695743560791015625,1120
229,1455735737.74516534805297851562,1120
230,1455735737.79581665992736816406,1112
231,1455735737.84537649154663085938,1112
232,1455735737.89464449882507324219,1112
233,1455735737.94515633583068847656,1104
234,1455735737.99559068679809570312,1104
235,1455735738.04532980918884277344,1096
236,1455735738.09484720230102539062,1088
237,1455735738.14544844627380371094,1088
238,1455735738.19492840766906738281,1080
239,1455735738.24546861648559570312,1080
240,1455735738.29490494728088378906,1072
241,1455735738.34526848793029785156,1064
242,1455735738.39481425285339355469,1056
243,1455735738.44512200355529785156,1056
244,1455735738.49564123153686523438,1048
245,1455735738.54502129554748535156,1040
246,1455735738.59565567970275878906,1032
247,1455735738.64512419700622558594,1024
248,1455735738.69560027122497558594,1016
249,1455735738.74505138397216796875,1016
250,1455735738.79551601409912109375,1008
251,1455735738.84501194953918457031,1000
252,1455735738.89539885520935058594,992
253,1455735738.94499969482421875,984
254,1455735738.99540162086486816406,976
255,1455735739.04513311386108398438,968
256,1455735739.09465241432189941406,960
257,1455735739.14529943466186523438,952
258,1455735739.19483208656311035156,944
259,1455735739.24521183967590332031,936
260,1455735739.29483675956726074219,928
261,1455735739.34521579742431640625,920
262,1455735739.39474511146545410156,912
263,1455735739.445117950439453125,904
264,1455735739.49571847915649414062,896
265,1455735739.54511880874633789062,888
266,1455735739.5955944061279296875,880
267,1455735739.64504027366638183594,864
268,1455735739.69535684585571289062,856
269,1455735739.74496912956237792969,848
270,1455735739.79536890983581542969,840
271,1455735739.84484767913818359375,832
272,1455735739.89527010917663574219,824
273,1455735739.94587445259094238281,816
274,1455735739.99525666236877441406,808
275,1455735740.04485225677490234375,800
276,1455735740.09549665451049804688,792
277,1455735740.145076751708984375,784
278,1455735740.19464802742004394531,784
279,1455735740.24507474899291992188,776
280,1455735740.29461812973022460938,768
281,1455735740.34496641159057617188,760
282,1455735740.39558100700378417969,752
283,1455735740.44496488571166992188,744
284,1455735740.49555754661560058594,736
285,1455735740.54498934745788574219,736
286,1455735740.5953311920166015625,728
287,1455735740.64500188827514648438,720
288,1455735740.6953029632568359375,712
289,1455735740.74499011039733886719,712
290,1455735740.79550576210021972656,704
291,1455735740.84493041038513183594,696
292,1455735740.89541316032409667969,696
293,1455735740.94498753547668457031,688
294,1455735740.995517730712890625,688
295,1455735741.04504752159118652344,680
296,1455735741.09479498863220214844,680
297,1455735741.145263671875,672
298,1455735741.19494485855102539062,672
299,1455735741.245410919189453125,664
300,1455735741.29492282867431640625,664
301,1455735741.34532713890075683594,664
302,1455735741.39473247528076171875,656
303,1455735741.44515872001647949219,656
304,1455735741.49556994438171386719,656
305,1455735741.54509043693542480469,656
306,1455735741.59553480148315429688,656
307,1455735741.64517331123352050781,656
308,1455735741.69454693794250488281,656
309,1455735741.74517917633056640625,656
310,1455735741.79460048675537109375,656
311,1455735741.84522914886474609375,656
312,1455735741.89459347724914550781,656
313,1455735741.94498991966247558594,656
314,1455735741.99464464187622070312,656
315,1455735742.04519581794738769531,656
316,1455735742.09500098228454589844,656
317,1455735742.14540910720825195312,664
318,1455735742.19502425193786621094,664
319,1455735742.24542903900146484375,664
320,1455735742.2949161529541015625,672
321,1455735742.34529590606689453125,672
322,1455735742.395549774169921875,672
323,1455735742.44493961334228515625,680
324,1455735742.49513602256774902344,680
325,1455735742.54561471939086914062,688
326,1455735742.59473776817321777344,696
327,1455735742.64512276649475097656,696
328,1455735742.6952972412109375,704
329,1455735742.74559664726257324219,704
330,1455735742.7948150634765625,712
331,1455735742.84498357772827148438,720
332,1455735742.89542102813720703125,728
333,1455735742.94561743736267089844,728
334,1455735742.99490952491760253906,736
335,1455735743.04505228996276855469,744
336,1455735743.09536862373352050781,752
337,1455735743.14556097984313964844,760
338,1455735743.19485974311828613281,768
339,1455735743.24509263038635253906,768
340,1455735743.29529666900634765625,776
341,1455735743.34459757804870605469,784
342,1455735743.39474344253540039062,792
343,1455735743.44506168365478515625,800
344,1455735743.49527454376220703125,808
345,1455735743.54567050933837890625,816
346,1455735743.59479665756225585938,824
347,1455735743.64511704444885253906,832
348,1455735743.69526886940002441406,840
349,1455735743.74545931816101074219,848
350,1455735743.7949161529541015625,856
351,1455735743.8451366424560546875,864
352,1455735743.89545583724975585938,872
353,1455735743.94458103179931640625,880
354,1455735743.99505209922790527344,888
355,1455735744.04551243782043457031,896
356,1455735744.09504866600036621094,904
357,1455735744.14535975456237792969,920
358,1455735744.19457578659057617188,928
359,1455735744.24512982368469238281,936
360,1455735744.295413970947265625,944
361,1455735744.34461188316345214844,952
362,1455735744.39490914344787597656,960
363,1455735744.44547748565673828125,968
364,1455735744.49502062797546386719,976
365,1455735744.54566359519958496094,984
366,1455735744.59519124031066894531,992
367,1455735744.64458227157592773438,1000
368,1455735744.69532322883605957031,1000
369,1455735744.7448787689208984375,1008
370,1455735744.79553365707397460938,1016
371,1455735744.84497547149658203125,1024
372,1455735744.89499926567077636719,1032
373,1455735744.94531106948852539062,1040
374,1455735744.99497771263122558594,1048
375,1455735745.04569339752197265625,1056
376,1455735745.09539365768432617188,1056
377,1455735745.14498472213745117188,1064
378,1455735745.19530582427978515625,1072
379,1455735745.24492979049682617188,1072
380,1455735745.29534673690795898438,1080
381,1455735745.34470963478088378906,1088
382,1455735745.39516139030456542969,1088
383,1455735745.44575214385986328125,1096
384,1455735745.49525952339172363281,1096
385,1455735745.54456090927124023438,1104
386,1455735745.59509992599487304688,1104
387,1455735745.64546442031860351562,1112
388,1455735745.69497919082641601562,1112
389,1455735745.74534392356872558594,1120
390,1455735745.79476284980773925781,1120
391,1455735745.84518289566040039062,1120
392,1455735745.89570498466491699219,1128
393,1455735745.94512605667114257812,1128
394,1455735745.99559545516967773438,1128
395,1455735746.04544281959533691406,1128
396,1455735746.09502339363098144531,1128
397,1455735746.14560151100158691406,1128
398,1455735746.19500327110290527344,1128
399,1455735746.24551916122436523438,1128
400,1455735746.29491925239562988281,1128
401,1455735746.34546804428100585938,1128
402,1455735746.39496207237243652344,1128
403,1455735746.44526386260986328125,1128
404,1455735746.49494099617004394531,1128
405,1455735746.54536986351013183594,1128
406,1455735746.59483075141906738281,1128
407,1455735746.64534401893615722656,1120
408,1455735746.69486165046691894531,1120
409,1455735746.74525570869445800781,1120
410,1455735746.79582810401916503906,1112
411,1455735746.84532070159912109375,1112
412,1455735746.89459991455078125,1112
413,1455735746.94522047042846679688,1104
414,1455735746.994800567626953125,1104
415,1455735747.04562282562255859375,1096
416,1455735747.09520888328552246094,1088
417,1455735747.14584064483642578125,1088
418,1455735747.19531226158142089844,1080
419,1455735747.24474596977233886719,1080
420,1455735747.29513692855834960938,1072
421,1455735747.34548091888427734375,1064
422,1455735747.39506125450134277344,1056
423,1455735747.44537854194641113281,1056
424,1455735747.49498462677001953125,1048
425,1455735747.54548168182373046875,1040
426,1455735747.59503579139709472656,1032
427,1455735747.64558458328247070312,1024
428,1455735747.69515490531921386719,1016
429,1455735747.74460816383361816406,1016
430,1455735747.79489493370056152344,1008
431,1455735747.845417022705078125,1000
432,1455735747.89481687545776367188,992
433,1455735747.94527864456176757812,984
434,1455735747.99466180801391601562,976
435,1455735748.04541873931884765625,968
436,1455735748.09499955177307128906,960
437,1455735748.14559102058410644531,952
438,1455735748.19503664970397949219,944
439,1455735748.24546957015991210938,936
440,1455735748.29500627517700195312,928
441,1455735748.34537076950073242188,920
442,1455735748.39490604400634765625,912
443,1455735748.44519639015197753906,904
444,1455735748.49575257301330566406,896
445,1455735748.54519581794738769531,888
446,1455735748.59468626976013183594,880
447,1455735748.6451568603515625,864
448,1455735748.69551753997802734375,856
449,1455735748.74503183364868164062,848
450,1455735748.79544043540954589844,840
451,1455735748.84502196311950683594,832
452,1455735748.89537191390991210938,824
453,1455735748.94504594802856445312,816
454,1455735748.99556303024291992188,808
455,1455735749.04524159431457519531,800
456,1455735749.09479212760925292969,792
457,1455735749.14524078369140625,784
458,1455735749.19492030143737792969,784
459,1455735749.24538779258728027344,776
460,1455735749.29498457908630371094,768
461,1455735749.3453617095947265625,760
462,1455735749.39482259750366210938,752
463,1455735749.44529676437377929688,744
464,1455735749.49472093582153320312,736
465,1455735749.54512643814086914062,736
466,1455735749.59549736976623535156,728
467,1455735749.64509367942810058594,720
468,1455735749.69539785385131835938,712
469,1455735749.74506497383117675781,712
470,1455735749.79555988311767578125,704
471,1455735749.84514188766479492188,696
472,1455735749.89553809165954589844,696
473,1455735749.94513559341430664062,688
474,1455735749.99466586112976074219,688
475,1455735750.04533267021179199219,680
476,1455735750.09510874748229980469,680
477,1455735750.14558196067810058594,672
478,1455735750.195278167724609375,672
479,1455735750.24463176727294921875,664
480,1455735750.29509854316711425781,664
481,1455735750.34547495841979980469,664
482,1455735750.39499139785766601562,656
483,1455735750.44533228874206542969,656
484,1455735750.49475359916687011719,656
485,1455735750.54532337188720703125,656
486,1455735750.59461212158203125,656
487,1455735750.64526772499084472656,656
488,1455735750.69463634490966796875,656
489,1455735750.74515199661254882812,656
490,1455735750.79527616500854492188,656
491,1455735750.84470987319946289062,656
492,1455735750.89523768424987792969,656
493,1455735750.9456348419189453125,656
494,1455735750.99515199661254882812,656
495,1455735751.04469442367553710938,656
496,1455735751.09552669525146484375,656
497,1455735751.14496278762817382812,664
498,1455735751.19542598724365234375,664
499,1455735751.24484181404113769531,664
