id, time (s), size (bits)
0,1455735726.38301014900207519531,96
1,1455735726.43275332450866699219,96
2,1455735726.48331737518310546875,96
3,1455735726.53391265869140625,96
4,1455735726.58334684371948242188,96
5,1455735726.63384413719177246094,96
6,1455735726.683258056640625,96
7,1455735726.73368430137634277344,96
8,1455735726.78331351280212402344,96
9,1455735726.83360409736633300781,96
10,1455735726.88300275802612304688,96
11,1455735726.93327784538269042969,96
12,1455735726.98375225067138671875,96
13,1455735727.03312969207763671875,96
14,1455735727.08363556861877441406,96
15,1455735727.13301992416381835938,96
16,1455735727.18335843086242675781,96
17,1455735727.23325371742248535156,96
18,1455735727.2836246490478515625,96
19,1455735727.33310914039611816406,96
20,1455735727.38341116905212402344,96
21,1455735727.4344120025634765625,96
22,1455735727.48273372650146484375,96
23,1455735727.53543424606323242188,96
24,1455735727.58330774307250976562,96
25,1455735727.63280963897705078125,96
26,1455735727.68370866775512695312,96
27,1455735727.73329687118530273438,96
28,1455735727.78305339813232421875,96
29,1455735727.8351287841796875,96
30,1455735727.88392019271850585938,96
31,1455735727.93349289894104003906,96
32,1455735727.983341217041015625,96
33,1455735728.03328084945678710938,96
34,1455735728.08293867111206054688,96
35,1455735728.133769989013671875,96
36,1455735728.18337893486022949219,96
37,1455735728.23352098464965820312,96
38,1455735728.28286600112915039062,96
39,1455735728.33356642723083496094,96
40,1455735728.3830623626708984375,96
41,1455735728.433696746826171875,96
42,1455735728.48319411277770996094,96
43,1455735728.53382039070129394531,96
44,1455735728.58359050750732421875,96
45,1455735728.63317584991455078125,96
46,1455735728.68281960487365722656,96
47,1455735728.73326325416564941406,96
48,1455735728.78377318382263183594,96
49,1455735728.83329606056213378906,96
50,1455735728.88391351699829101562,96
51,1455735728.93337988853454589844,96
52,1455735728.98275041580200195312,96
53,1455735729.03350877761840820312,96
54,1455735729.08315205574035644531,96
55,1455735729.13274836540222167969,96
56,1455735729.18324875831604003906,96
57,1455735729.23391389846801757812,96
58,1455735729.28342175483703613281,96
59,1455735729.33316636085510253906,96
60,1455735729.38363862037658691406,96
61,1455735729.43312740325927734375,96
62,1455735729.48383665084838867188,96
63,1455735729.5333423614501953125,96
64,1455735729.58295035362243652344,96
65,1455735729.63364887237548828125,96
66,1455735729.6831569671630859375,96
67,1455735729.73366641998291015625,96
68,1455735729.78320288658142089844,96
69,1455735729.83371615409851074219,96
70,1455735729.88316321372985839844,96
71,1455735729.93275237083435058594,96
72,1455735729.98315000534057617188,96
73,1455735730.03387880325317382812,96
74,1455735730.0835056304931640625,96
75,1455735730.13317751884460449219,96
76,1455735730.18367266654968261719,96
77,1455735730.23335719108581542969,96
78,1455735730.28280925750732421875,96
79,1455735730.33335590362548828125,96
80,1455735730.38293290138244628906,96
81,1455735730.43339872360229492188,96
82,1455735730.48299193382263183594,96
83,1455735730.53352475166320800781,96
84,1455735730.5833187103271484375,96
85,1455735730.63273143768310546875,96
86,1455735730.68332457542419433594,96
87,1455735730.73272943496704101562,96
88,1455735730.78316783905029296875,96
89,1455735730.83269476890563964844,96
90,1455735730.88311505317687988281,96
91,1455735730.9327239990234375,96
92,1455735730.98313784599304199219,96
93,1455735731.03387856483459472656,96
94,1455735731.08363771438598632812,96
95,1455735731.13330531120300292969,96
96,1455735731.182788848876953125,96
97,1455735731.23320341110229492188,96
98,1455735731.28379034996032714844,96
99,1455735731.3333148956298828125,96
100,1455735731.38274812698364257812,96
101,1455735731.43318963050842285156,96
102,1455735731.48393797874450683594,96
103,1455735731.53354144096374511719,96
104,1455735731.5832672119140625,96
105,1455735731.63270616531372070312,96
106,1455735731.68320751190185546875,96
107,1455735731.73277688026428222656,96
108,1455735731.78321409225463867188,96
109,1455735731.83274388313293457031,96
110,1455735731.88317537307739257812,96
111,1455735731.93384718894958496094,96
112,1455735731.9834575653076171875,96
113,1455735732.03321051597595214844,96
114,1455735732.08276152610778808594,96
115,1455735732.13327956199645996094,96
116,1455735732.18283343315124511719,96
117,1455735732.23325181007385253906,96
118,1455735732.28372359275817871094,96
119,1455735732.33325481414794921875,96
120,1455735732.38391137123107910156,96
121,1455735732.43332743644714355469,96
122,1455735732.48396182060241699219,96
123,1455735732.53356122970581054688,96
124,1455735732.58314180374145507812,96
125,1455735732.63373994827270507812,96
126,1455735732.68319153785705566406,96
127,1455735732.73292803764343261719,96
128,1455735732.78333902359008789062,96
129,1455735732.83353900909423828125,96
130,1455735732.88302350044250488281,96
131,1455735732.93362879753112792969,96
132,1455735732.98314523696899414062,96
133,1455735733.03364491462707519531,96
134,1455735733.08343625068664550781,96
135,1455735733.1329479217529296875,96
136,1455735733.18363451957702636719,96
137,1455735733.23312687873840332031,96
138,1455735733.28372478485107421875,96
139,1455735733.33319616317749023438,96
140,1455735733.38361334800720214844,96
141,1455735733.43288683891296386719,96
142,1455735733.48298239707946777344,96
143,1455735733.53340077400207519531,96
144,1455735733.58313441276550292969,96
145,1455735733.63349390029907226562,96
146,1455735733.68367052078247070312,96
147,1455735733.73298597335815429688,96
148,1455735733.78313922882080078125,96
149,1455735733.83349537849426269531,96
150,1455735733.88362741470336914062,96
151,1455735733.93275308609008789062,96
152,1455735733.98301649093627929688,96
153,1455735734.03324103355407714844,96
154,1455735734.08370161056518554688,96
155,1455735734.13291382789611816406,96
156,1455735734.18325376510620117188,96
157,1455735734.23348212242126464844,96
158,1455735734.28371834754943847656,96
159,1455735734.332920074462890625,96
160,1455735734.38306593894958496094,96
161,1455735734.43337607383728027344,96
162,1455735734.48362135887145996094,96
163,1455735734.53299784660339355469,96
164,1455735734.58331179618835449219,96
165,1455735734.63356637954711914062,96
166,1455735734.68271541595458984375,96
167,1455735734.73288798332214355469,96
168,1455735734.7830944061279296875,96
169,1455735734.83345079421997070312,96
170,1455735734.88279962539672851562,96
171,1455735734.933048248291015625,96
172,1455735734.98327112197875976562,96
173,1455735735.03374648094177246094,96
174,1455735735.08336734771728515625,96
175,1455735735.13359117507934570312,96
176,1455735735.18326401710510253906,96
177,1455735735.23271465301513671875,96
178,1455735735.28316402435302734375,96
179,1455735735.33287358283996582031,96
180,1455735735.38335752487182617188,96
181,1455735735.43301153182983398438,96
182,1455735735.48351383209228515625,96
183,1455735735.53312802314758300781,96
184,1455735735.58361959457397460938,96
185,1455735735.63322973251342773438,96
186,1455735735.68372035026550292969,96
187,1455735735.73320031166076660156,96
188,1455735735.78280663490295410156,96
189,1455735735.83331370353698730469,96
190,1455735735.88279056549072265625,96
191,1455735735.93326807022094726562,96
192,1455735735.9838809967041015625,96
193,1455735736.03346729278564453125,96
194,1455735736.08321976661682128906,96
195,1455735736.13370013236999511719,96
196,1455735736.18310403823852539062,96
197,1455735736.23275613784790039062,96
198,1455735736.28320074081420898438,96
199,1455735736.33373856544494628906,96
200,1455735736.38318586349487304688,96
201,1455735736.43375658988952636719,96
202,1455735736.48323202133178710938,96
203,1455735736.53392434120178222656,96
204,1455735736.58342909812927246094,96
205,1455735736.63276767730712890625,96
206,1455735736.68351697921752929688,96
207,1455735736.73309230804443359375,96
208,1455735736.7836322784423828125,96
209,1455735736.83314824104309082031,96
210,1455735736.883563995361328125,96
211,1455735736.93297290802001953125,96
212,1455735736.98363590240478515625,96
213,1455735737.03329992294311523438,96
214,1455735737.08292484283447265625,96
215,1455735737.13360810279846191406,96
216,1455735737.18303012847900390625,96
217,1455735737.23368477821350097656,96
218,1455735737.283050537109375,96
219,1455735737.33373475074768066406,96
220,1455735737.3831787109375,96
221,1455735737.4338054656982421875,96
222,1455735737.48333859443664550781,96
223,1455735737.53279352188110351562,96
224,1455735737.58346104621887207031,96
225,1455735737.63288736343383789062,96
226,1455735737.68349575996398925781,96
227,1455735737.73296046257019042969,96
228,1455735737.78349518775939941406,96
229,1455735737.83295011520385742188,96
230,1455735737.88347268104553222656,96
231,1455735737.93304347991943359375,96
232,1455735737.98351883888244628906,96
233,1455735738.03322529792785644531,96
234,1455735738.08277153968811035156,96
235,1455735738.133388519287109375,96
236,1455735738.18278145790100097656,96
237,1455735738.23333287239074707031,96
238,1455735738.282764434814453125,96
239,1455735738.33350348472595214844,96
240,1455735738.38302493095397949219,96
241,1455735738.43347096443176269531,96
242,1455735738.48305106163024902344,96
243,1455735738.53362417221069335938,96
244,1455735738.58334612846374511719,96
245,1455735738.63271737098693847656,96
246,1455735738.68338274955749511719,96
247,1455735738.732921600341796875,96
248,1455735738.78347563743591308594,96
249,1455735738.83296442031860351562,96
250,1455735738.88332796096801757812,96
251,1455735738.932941436767578125,96
252,1455735738.98331236839294433594,96
253,1455735739.03304791450500488281,96
254,1455735739.08318281173706054688,96
255,1455735739.13391590118408203125,96
256,1455735739.18335700035095214844,96
257,1455735739.23285937309265136719,96
258,1455735739.28341245651245117188,96
259,1455735739.33288788795471191406,96
260,1455735739.3834896087646484375,96
261,1455735739.43298554420471191406,96
262,1455735739.48359656333923339844,96
263,1455735739.53303122520446777344,96
264,1455735739.58378839492797851562,96
265,1455735739.63329958915710449219,96
266,1455735739.68385410308837890625,96
267,1455735739.73333191871643066406,96
268,1455735739.78367877006530761719,96
269,1455735739.83330845832824707031,96
270,1455735739.88372278213500976562,96
271,1455735739.93331074714660644531,96
272,1455735739.98383498191833496094,96
273,1455735740.03363156318664550781,96
274,1455735740.0832920074462890625,96
275,1455735740.13284015655517578125,96
276,1455735740.18337082862854003906,96
277,1455735740.23277878761291503906,96
278,1455735740.28336095809936523438,96
279,1455735740.33374857902526855469,96
280,1455735740.38336420059204101562,96
281,1455735740.43273949623107910156,96
282,1455735740.48338913917541503906,96
283,1455735740.53300976753234863281,96
284,1455735740.58360767364501953125,96
285,1455735740.63310861587524414062,96
286,1455735740.68354845046997070312,96
287,1455735740.73315072059631347656,96
288,1455735740.78353142738342285156,96
289,1455735740.83323597908020019531,96
290,1455735740.88363623619079589844,96
291,1455735740.93315243721008300781,96
292,1455735740.98367190361022949219,96
293,1455735741.03333497047424316406,96
294,1455735741.08296251296997070312,96
295,1455735741.13346648216247558594,96
296,1455735741.1830596923828125,96
297,1455735741.23355412483215332031,96
298,1455735741.28321695327758789062,96
299,1455735741.33368015289306640625,96
300,1455735741.3832759857177734375,96
301,1455735741.43271946907043457031,96
302,1455735741.48322272300720214844,96
303,1455735741.53373956680297851562,96
304,1455735741.58323740959167480469,96
305,1455735741.63272976875305175781,96
306,1455735741.68320012092590332031,96
307,1455735741.73287606239318847656,96
308,1455735741.78329968452453613281,96
309,1455735741.83287525177001953125,96
310,1455735741.88328647613525390625,96
311,1455735741.93294787406921386719,96
312,1455735741.98351764678955078125,96
313,1455735742.03308582305908203125,96
314,1455735742.08275747299194335938,96
315,1455735742.13324022293090820312,96
316,1455735742.18287634849548339844,96
317,1455735742.23327517509460449219,96
318,1455735742.28377628326416015625,96
319,1455735742.33322429656982421875,96
320,1455735742.38363862037658691406,96
321,1455735742.43290734291076660156,96
322,1455735742.48301076889038085938,96
323,1455735742.53345918655395507812,96
324,1455735742.58377003669738769531,96
325,1455735742.63323760032653808594,96
326,1455735742.68341922760009765625,96
327,1455735742.73380827903747558594,96
328,1455735742.78292703628540039062,96
329,1455735742.83325529098510742188,96
330,1455735742.8834247589111328125,96
331,1455735742.93359661102294921875,96
332,1455735742.98304438591003417969,96
333,1455735743.03330159187316894531,96
334,1455735743.08365583419799804688,96
335,1455735743.13274478912353515625,96
336,1455735743.18309783935546875,96
337,1455735743.23321199417114257812,96
338,1455735743.2834606170654296875,96
339,1455735743.33371257781982421875,96
340,1455735743.38285279273986816406,96
341,1455735743.43326306343078613281,96
342,1455735743.48352813720703125,96
343,1455735743.53288531303405761719,96
344,1455735743.58312582969665527344,96
345,1455735743.63336920738220214844,96
346,1455735743.68353295326232910156,96
347,1455735743.732807159423828125,96
348,1455735743.7829990386962890625,96
349,1455735743.83333134651184082031,96
350,1455735743.88372802734375,96
351,1455735743.93294835090637207031,96
352,1455735743.98318839073181152344,96
353,1455735744.03353095054626464844,96
354,1455735744.08316183090209960938,96
355,1455735744.13335967063903808594,96
356,1455735744.18292450904846191406,96
357,1455735744.23347496986389160156,96
358,1455735744.28286314010620117188,96
359,1455735744.33364415168762207031,96
360,1455735744.38313508033752441406,96
361,1455735744.43372488021850585938,96
362,1455735744.48320484161376953125,96
363,1455735744.53392267227172851562,96
364,1455735744.5835170745849609375,96
365,1455735744.63309025764465332031,96
366,1455735744.68360638618469238281,96
367,1455735744.73311066627502441406,96
368,1455735744.78278255462646484375,96
369,1455735744.83336377143859863281,96
370,1455735744.88304448127746582031,96
371,1455735744.93356013298034667969,96
372,1455735744.98317623138427734375,96
373,1455735745.03379368782043457031,96
374,1455735745.08361291885375976562,96
375,1455735745.13321566581726074219,96
376,1455735745.18366885185241699219,96
377,1455735745.23329663276672363281,96
378,1455735745.283756256103515625,96
379,1455735745.33334636688232421875,96
380,1455735745.3826904296875,96
381,1455735745.4333095550537109375,96
382,1455735745.4827175140380859375,96
383,1455735745.53343796730041503906,96
384,1455735745.58297753334045410156,96
385,1455735745.63340592384338378906,96
386,1455735745.68294739723205566406,96
387,1455735745.73337507247924804688,96
388,1455735745.78296136856079101562,96
389,1455735745.8334197998046875,96
390,1455735745.882904052734375,96
391,1455735745.93341183662414550781,96
392,1455735745.98295497894287109375,96
393,1455735746.03359055519104003906,96
394,1455735746.08324074745178222656,96
395,1455735746.13280558586120605469,96
396,1455735746.18329954147338867188,96
397,1455735746.23293828964233398438,96
398,1455735746.28329586982727050781,96
399,1455735746.33381175994873046875,96
400,1455735746.38330483436584472656,96
401,1455735746.43392920494079589844,96
402,1455735746.48353695869445800781,96
403,1455735746.53301525115966796875,96
404,1455735746.583705902099609375,96
405,1455735746.63317584991455078125,96
406,1455735746.68375515937805175781,96
407,1455735746.73323917388916015625,96
408,1455735746.78372097015380859375,96
409,1455735746.83319568634033203125,96
410,1455735746.88383889198303222656,96
411,1455735746.93330740928649902344,96
412,1455735746.98268032073974609375,96
413,1455735747.03341841697692871094,96
414,1455735747.08305525779724121094,96
415,1455735747.13368940353393554688,96
416,1455735747.18321704864501953125,96
417,1455735747.23395943641662597656,96
418,1455735747.28346538543701171875,96
419,1455735747.33308434486389160156,96
420,1455735747.38350677490234375,96
421,1455735747.43299579620361328125,96
422,1455735747.48367738723754882812,96
423,1455735747.53318381309509277344,96
424,1455735747.58272314071655273438,96
425,1455735747.63315796852111816406,96
426,1455735747.68383097648620605469,96
427,1455735747.73332142829895019531,96
428,1455735747.78379702568054199219,96
429,1455735747.83333683013916015625,96
430,1455735747.88267779350280761719,96
431,1455735747.93330144882202148438,96
432,1455735747.98269009590148925781,96
433,1455735748.03337526321411132812,96
434,1455735748.08297586441040039062,96
435,1455735748.13368248939514160156,96
436,1455735748.18310213088989257812,96
437,1455735748.23374581336975097656,96
438,1455735748.28323197364807128906,96
439,1455735748.33370923995971679688,96
440,1455735748.38332629203796386719,96
441,1455735748.43375301361083984375,96
442,1455735748.48336911201477050781,96
443,1455735748.53291749954223632812,96
444,1455735748.58368563652038574219,96
445,1455735748.63319277763366699219,96
446,1455735748.68374085426330566406,96
447,1455735748.733257293701171875,96
448,1455735748.78361678123474121094,96
449,1455735748.8332309722900390625,96
450,1455735748.8836116790771484375,96
451,1455735748.93313336372375488281,96
452,1455735748.98362421989440917969,96
453,1455735749.03334259986877441406,96
454,1455735749.08294081687927246094,96
455,1455735749.13357806205749511719,96
456,1455735749.18304419517517089844,96
457,1455735749.23352122306823730469,96
458,1455735749.2830524444580078125,96
459,1455735749.33355093002319335938,96
460,1455735749.38325643539428710938,96
461,1455735749.43365573883056640625,96
462,1455735749.48331522941589355469,96
463,1455735749.532787322998046875,96
464,1455735749.58338284492492675781,96
465,1455735749.6327667236328125,96
466,1455735749.68314290046691894531,96
467,1455735749.733753204345703125,96
468,1455735749.7831897735595703125,96
469,1455735749.83279252052307128906,96
470,1455735749.88325786590576171875,96
471,1455735749.93383049964904785156,96
472,1455735749.9833087921142578125,96
473,1455735750.03295922279357910156,96
474,1455735750.08366155624389648438,96
475,1455735750.13317728042602539062,96
476,1455735750.18377637863159179688,96
477,1455735750.23349976539611816406,96
478,1455735750.28317570686340332031,96
479,1455735750.33364796638488769531,96
480,1455735750.38326239585876464844,96
481,1455735750.43370175361633300781,96
482,1455735750.4832744598388671875,96
483,1455735750.53277540206909179688,96
484,1455735750.58333539962768554688,96
485,1455735750.63292002677917480469,96
486,1455735750.68339967727661132812,96
487,1455735750.733074188232421875,96
488,1455735750.78353595733642578125,96
489,1455735750.83317518234252929688,96
490,1455735750.88356351852416992188,96
491,1455735750.93309926986694335938,96
492,1455735750.98359227180480957031,96
493,1455735751.03310370445251464844,96
494,1455735751.08275508880615234375,96
495,1455735751.13324952125549316406,96
496,1455735751.18299078941345214844,96
497,1455735751.23346924781799316406,96
498,1455735751.28288197517395019531,96
499,1455735751.3333950042724609375,96
500,1455735751.38383769989013671875,96
501,1455735751.43303751945495605469,96
502,1455735751.48311591148376464844,96
503,1455735751.53363013267517089844,96
504,1455735751.58275055885314941406,96
505,1455735751.63307881355285644531,96
506,1455735751.68328738212585449219,96
507,1455735751.73358964920043945312,96
508,1455735751.78371214866638183594,96
509,1455735751.83297038078308105469,96
510,1455735751.88317179679870605469,96
511,1455735751.93335294723510742188,96
512,1455735751.98272299766540527344,96
513,1455735752.03280758857727050781,96
514,1455735752.08327174186706542969,96
515,1455735752.13342070579528808594,96
516,1455735752.18378114700317382812,96
517,1455735752.23309278488159179688,96
