id, time (s), size (bits)
0,1455903666.0118198394775390625,1455903666.01184248924255371094,6104
1,1455903666.11446404457092285156,1455903666.11447930335998535156,6232
2,1455903666.12405061721801757812,1455903666.124065399169921875,6248
3,1455903666.13300251960754394531,1455903666.13301730155944824219,6256
4,1455903666.1424922943115234375,1455903666.14250659942626953125,6272
5,1455903666.15149855613708496094,1455903666.15151357650756835938,6280
6,1455903666.16110873222351074219,1455903666.16112279891967773438,6296
7,1455903666.17044997215270996094,1455903666.17046427726745605469,6304
8,1455903666.17954397201538085938,1455903666.17956066131591796875,6312
9,1455903666.18893289566040039062,1455903666.18894791603088378906,6328
10,1455903666.19847202301025390625,1455903666.19851016998291015625,6336
11,1455903666.20763564109802246094,1455903666.20765042304992675781,6352
12,1455903666.21719861030578613281,1455903666.21721315383911132812,6360
13,1455903666.22676110267639160156,1455903666.22677588462829589844,6376
14,1455903666.23623251914978027344,1455903666.23624753952026367188,6384
15,1455903666.24580478668212890625,1455903666.24587273597717285156,6400
16,1455903666.25523066520690917969,1455903666.255268096923828125,6408
17,1455903666.26458692550659179688,1455903666.26460480690002441406,6424
18,1455903666.273777008056640625,1455903666.27379369735717773438,6432
19,1455903666.28349852561950683594,1455903666.28351688385009765625,6448
20,1455903666.29352021217346191406,1455903666.293582916259765625,6456
21,1455903666.30279088020324707031,1455903666.30280804634094238281,6472
22,1455903666.31208372116088867188,1455903666.31210064888000488281,6480
23,1455903666.3220615386962890625,1455903666.32207894325256347656,6488
24,1455903666.33142423629760742188,1455903666.33144235610961914062,6504
25,1455903666.34088206291198730469,1455903666.34090065956115722656,6512
26,1455903666.35017919540405273438,1455903666.35019898414611816406,6528
27,1455903666.35956406593322753906,1455903666.35958266258239746094,6536
28,1455903666.36850476264953613281,1455903666.36852335929870605469,6552
29,1455903666.37823653221130371094,1455903666.37825489044189453125,6560
30,1455903666.38760685920715332031,1455903666.3876247406005859375,6568
31,1455903666.39641571044921875,1455903666.39643406867980957031,6584
32,1455903666.40579581260681152344,1455903666.40581488609313964844,6592
33,1455903666.4152679443359375,1455903666.41528797149658203125,6608
34,1455903666.42451763153076171875,1455903666.42455434799194335938,6616
35,1455903666.43422532081604003906,1455903666.434246063232421875,6624
36,1455903666.44405412673950195312,1455903666.44409441947937011719,6640
37,1455903666.453212738037109375,1455903666.45323157310485839844,6648
38,1455903666.46252703666687011719,1455903666.46254730224609375,6664
39,1455903666.47223687171936035156,1455903666.47230052947998046875,6672
40,1455903666.48165798187255859375,1455903666.48167848587036132812,6688
41,1455903666.491153717041015625,1455903666.49117374420166015625,6696
42,1455903666.50070977210998535156,1455903666.50073003768920898438,6704
43,1455903666.51069593429565429688,1455903666.5107364654541015625,6720
44,1455903666.52056908607482910156,1455903666.52061223983764648438,6728
45,1455903666.53035521507263183594,1455903666.53037548065185546875,6744
46,1455903666.54004406929016113281,1455903666.54010939598083496094,6752
47,1455903666.54920792579650878906,1455903666.54922819137573242188,6760
48,1455903666.55911350250244140625,1455903666.55916595458984375,6776
49,1455903666.56884455680847167969,1455903666.56886529922485351562,6784
50,1455903666.5781097412109375,1455903666.57812905311584472656,6800
51,1455903666.58781290054321289062,1455903666.58783411979675292969,6808
52,1455903666.59745383262634277344,1455903666.59747457504272460938,6816
53,1455903666.60698342323303222656,1455903666.60700464248657226562,6832
54,1455903666.61667847633361816406,1455903666.61670017242431640625,6840
55,1455903666.62622857093811035156,1455903666.62624955177307128906,6856
56,1455903666.63538789749145507812,1455903666.63540744781494140625,6864
57,1455903666.64486289024353027344,1455903666.64488196372985839844,6872
58,1455903666.65452337265014648438,1455903666.65456485748291015625,6888
59,1455903666.66460394859313964844,1455903666.66462540626525878906,6896
60,1455903666.67401599884033203125,1455903666.67403531074523925781,6904
61,1455903666.68391132354736328125,1455903666.68393230438232421875,6920
62,1455903666.6936664581298828125,1455903666.69371008872985839844,6928
63,1455903666.70302891731262207031,1455903666.70304918289184570312,6936
64,1455903666.71304869651794433594,1455903666.71307063102722167969,6952
65,1455903666.72270917892456054688,1455903666.72273039817810058594,6960
66,1455903666.73159623146057128906,1455903666.73161578178405761719,6968
67,1455903666.74162411689758300781,1455903666.741664886474609375,6984
68,1455903666.75103211402893066406,1455903666.75109457969665527344,6992
69,1455903666.76033067703247070312,1455903666.76035022735595703125,7000
70,1455903666.77007913589477539062,1455903666.77009868621826171875,7016
71,1455903666.78008794784545898438,1455903666.78013014793395996094,7024
72,1455903666.7894420623779296875,1455903666.78946018218994140625,7032
73,1455903666.79893898963928222656,1455903666.79895782470703125,7040
74,1455903666.80868864059448242188,1455903666.80870962142944335938,7056
75,1455903666.81852006912231445312,1455903666.81854081153869628906,7064
76,1455903666.82819628715515136719,1455903666.82823681831359863281,7072
77,1455903666.83768963813781738281,1455903666.83773016929626464844,7088
78,1455903666.84739923477172851562,1455903666.84741997718811035156,7096
79,1455903666.85671973228454589844,1455903666.856739044189453125,7104
80,1455903666.86634755134582519531,1455903666.86637091636657714844,7112
81,1455903666.87616372108459472656,1455903666.8762054443359375,7128
82,1455903666.88537049293518066406,1455903666.88539195060729980469,7136
83,1455903666.89502358436584472656,1455903666.8950653076171875,7144
84,1455903666.90473508834838867188,1455903666.90475392341613769531,7152
85,1455903666.91418600082397460938,1455903666.91420626640319824219,7160
86,1455903666.92338442802429199219,1455903666.92340564727783203125,7176
87,1455903666.93318915367126464844,1455903666.93321061134338378906,7184
88,1455903666.94294285774230957031,1455903666.94296240806579589844,7192
89,1455903666.95303964614868164062,1455903666.95306062698364257812,7200
90,1455903666.96314954757690429688,1455903666.963169097900390625,7208
91,1455903666.97272944450378417969,1455903666.97275042533874511719,7224
92,1455903666.98272871971130371094,1455903666.9827480316162109375,7232
93,1455903666.99254560470581054688,1455903666.9925670623779296875,7240
94,1455903667.0021877288818359375,1455903667.00220942497253417969,7248
95,1455903667.01208400726318359375,1455903667.01212739944458007812,7256
96,1455903667.02180743217468261719,1455903667.02186107635498046875,7272
97,1455903667.03148722648620605469,1455903667.03150820732116699219,7280
98,1455903667.04135656356811523438,1455903667.04139995574951171875,7288
99,1455903667.05125117301940917969,1455903667.05129504203796386719,7296
100,1455903667.06081533432006835938,1455903667.06083703041076660156,7304
101,1455903667.07013750076293945312,1455903667.07015681266784667969,7312
102,1455903667.07991528511047363281,1455903667.07997536659240722656,7320
103,1455903667.089786529541015625,1455903667.08982825279235839844,7328
104,1455903667.09919404983520507812,1455903667.09923624992370605469,7344
105,1455903667.10864663124084472656,1455903667.10866785049438476562,7352
106,1455903667.1188335418701171875,1455903667.11887526512145996094,7360
107,1455903667.12819695472717285156,1455903667.12823653221130371094,7368
108,1455903667.13779497146606445312,1455903667.13781619071960449219,7376
109,1455903667.14767885208129882812,1455903667.14773797988891601562,7384
110,1455903667.15690922737121582031,1455903667.15692949295043945312,7392
111,1455903667.16689515113830566406,1455903667.16695880889892578125,7400
112,1455903667.176761627197265625,1455903667.17678308486938476562,7408
113,1455903667.18654847145080566406,1455903667.18657016754150390625,7416
114,1455903667.19617009162902832031,1455903667.19619154930114746094,7424
115,1455903667.20568490028381347656,1455903667.2057514190673828125,7432
116,1455903667.21508646011352539062,1455903667.21510815620422363281,7440
117,1455903667.2250232696533203125,1455903667.22505021095275878906,7448
118,1455903667.23490619659423828125,1455903667.23494863510131835938,7456
119,1455903667.24442720413208007812,1455903667.24444794654846191406,7464
120,1455903667.25404572486877441406,1455903667.25406527519226074219,7472
121,1455903667.26374125480651855469,1455903667.263782501220703125,7480
122,1455903667.27377009391784667969,1455903667.27383327484130859375,7488
123,1455903667.28331851959228515625,1455903667.28338098526000976562,7496
124,1455903667.29329538345336914062,1455903667.29335236549377441406,7504
125,1455903667.30299043655395507812,1455903667.30301117897033691406,7512
126,1455903667.31250524520874023438,1455903667.312526702880859375,7520
127,1455903667.32223653793334960938,1455903667.32227993011474609375,7528
128,1455903667.33214521408081054688,1455903667.33216619491577148438,7536
129,1455903667.34154772758483886719,1455903667.34158849716186523438,7544
130,1455903667.35130047798156738281,1455903667.351322174072265625,7552
131,1455903667.36101984977722167969,1455903667.36104130744934082031,7552
132,1455903667.37031292915344238281,1455903667.37033295631408691406,7560
133,1455903667.38003230094909667969,1455903667.38005208969116210938,7568
134,1455903667.38979125022888183594,1455903667.38981723785400390625,7576
135,1455903667.3993244171142578125,1455903667.39934444427490234375,7584
136,1455903667.40897059440612792969,1455903667.40898966789245605469,7592
137,1455903667.41880273818969726562,1455903667.41884469985961914062,7600
138,1455903667.4281024932861328125,1455903667.42812371253967285156,7600
139,1455903667.43807125091552734375,1455903667.43813323974609375,7608
140,1455903667.44759869575500488281,1455903667.44761991500854492188,7616
141,1455903667.45748472213745117188,1455903667.45750570297241210938,7624
142,1455903667.46734499931335449219,1455903667.46738839149475097656,7632
143,1455903667.47733235359191894531,1455903667.477359771728515625,7632
144,1455903667.48676729202270507812,1455903667.48678874969482421875,7640
145,1455903667.49614715576171875,1455903667.49618864059448242188,7648
146,1455903667.50588011741638183594,1455903667.50592350959777832031,7656
147,1455903667.51562714576721191406,1455903667.51566863059997558594,7656
148,1455903667.52528905868530273438,1455903667.5253467559814453125,7664
149,1455903667.53527474403381347656,1455903667.53529596328735351562,7672
150,1455903667.54543423652648925781,1455903667.54547572135925292969,7680
151,1455903667.55484747886657714844,1455903667.55486917495727539062,7680
152,1455903667.56479215621948242188,1455903667.56481528282165527344,7688
153,1455903667.57456111907958984375,1455903667.57460331916809082031,7696
154,1455903667.58416199684143066406,1455903667.58418178558349609375,7704
155,1455903667.59416508674621582031,1455903667.59419226646423339844,7704
156,1455903667.60367870330810546875,1455903667.60369944572448730469,7712
157,1455903667.61317610740661621094,1455903667.61322832107543945312,7720
158,1455903667.62280821800231933594,1455903667.6228275299072265625,7720
159,1455903667.63260936737060546875,1455903667.6326503753662109375,7728
160,1455903667.64233326911926269531,1455903667.64235377311706542969,7728
161,1455903667.65214443206787109375,1455903667.65218806266784667969,7736
162,1455903667.66188168525695800781,1455903667.66194224357604980469,7744
163,1455903667.67157483100891113281,1455903667.67159509658813476562,7744
164,1455903667.68115711212158203125,1455903667.68117833137512207031,7752
165,1455903667.69046759605407714844,1455903667.69049119949340820312,7752
166,1455903667.69947338104248046875,1455903667.69949626922607421875,7760
167,1455903667.70849657058715820312,1455903667.70851778984069824219,7768
168,1455903667.71773076057434082031,1455903667.71775078773498535156,7768
169,1455903667.72675585746765136719,1455903667.72677493095397949219,7776
170,1455903667.73562765121459960938,1455903667.73564887046813964844,7776
171,1455903667.74455904960632324219,1455903667.74457526206970214844,7784
172,1455903667.75378751754760742188,1455903667.753826141357421875,7784
173,1455903667.76304721832275390625,1455903667.76306819915771484375,7792
174,1455903667.77194285392761230469,1455903667.77195906639099121094,7792
175,1455903667.78131103515625,1455903667.78132772445678710938,7792
176,1455903667.7909145355224609375,1455903667.79093289375305175781,7800
177,1455903667.79987072944641113281,1455903667.79988884925842285156,7800
178,1455903667.80960774421691894531,1455903667.80964541435241699219,7808
179,1455903667.81896638870239257812,1455903667.81898522377014160156,7808
180,1455903667.82789683341979980469,1455903667.8279170989990234375,7816
181,1455903667.83683991432189941406,1455903667.83687639236450195312,7816
182,1455903667.84648561477661132812,1455903667.84650325775146484375,7824
183,1455903667.85609745979309082031,1455903667.8561153411865234375,7824
184,1455903667.86534214019775390625,1455903667.86535954475402832031,7824
185,1455903667.87499213218688964844,1455903667.87505388259887695312,7832
186,1455903667.88433313369750976562,1455903667.88434958457946777344,7832
187,1455903667.89384365081787109375,1455903667.89385986328125,7840
188,1455903667.90346550941467285156,1455903667.90350127220153808594,7840
189,1455903667.91332149505615234375,1455903667.9133396148681640625,7840
190,1455903667.92254495620727539062,1455903667.92256307601928710938,7848
191,1455903667.93216419219970703125,1455903667.932220458984375,7848
192,1455903667.94190669059753417969,1455903667.94192481040954589844,7848
193,1455903667.95131349563598632812,1455903667.9513568878173828125,7856
194,1455903667.96109342575073242188,1455903667.96113181114196777344,7856
195,1455903667.97080206871032714844,1455903667.97083997726440429688,7856
196,1455903667.98008394241333007812,1455903667.9801006317138671875,7856
197,1455903667.98936772346496582031,1455903667.98938512802124023438,7864
198,1455903667.99914121627807617188,1455903667.99915933609008789062,7864
199,1455903668.00837492942810058594,1455903668.00839328765869140625,7864
200,1455903668.01765608787536621094,1455903668.01767373085021972656,7872
201,1455903668.02725315093994140625,1455903668.02730822563171386719,7872
202,1455903668.03703236579895019531,1455903668.0370502471923828125,7872
203,1455903668.04600358009338378906,1455903668.04602146148681640625,7872
204,1455903668.05542588233947753906,1455903668.05544137954711914062,7872
205,1455903668.0651454925537109375,1455903668.06516385078430175781,7880
206,1455903668.07435107231140136719,1455903668.07436895370483398438,7880
207,1455903668.08329248428344726562,1455903668.08331036567687988281,7880
208,1455903668.09280300140380859375,1455903668.09281945228576660156,7880
209,1455903668.10217976570129394531,1455903668.10219693183898925781,7880
210,1455903668.11132025718688964844,1455903668.11135840415954589844,7880
211,1455903668.1207942962646484375,1455903668.12081193923950195312,7888
212,1455903668.13043045997619628906,1455903668.13044834136962890625,7888
213,1455903668.13956427574157714844,1455903668.13958120346069335938,7888
214,1455903668.14928650856018066406,1455903668.14932417869567871094,7888
215,1455903668.15912389755249023438,1455903668.15918612480163574219,7888
216,1455903668.1679401397705078125,1455903668.16795873641967773438,7888
217,1455903668.17778849601745605469,1455903668.17782688140869140625,7888
218,1455903668.187328338623046875,1455903668.18734669685363769531,7888
219,1455903668.19658327102661132812,1455903668.19660043716430664062,7888
220,1455903668.20602393150329589844,1455903668.20606255531311035156,7888
221,1455903668.21587252616882324219,1455903668.21591114997863769531,7888
222,1455903668.22513484954833984375,1455903668.22515273094177246094,7888
223,1455903668.234729766845703125,1455903668.23479032516479492188,7888
224,1455903668.24427390098571777344,1455903668.24431347846984863281,7888
225,1455903668.25406980514526367188,1455903668.25408816337585449219,7888
226,1455903668.26355600357055664062,1455903668.26359462738037109375,7888
227,1455903668.27306461334228515625,1455903668.27310252189636230469,7888
228,1455903668.28256392478942871094,1455903668.28258252143859863281,7888
229,1455903668.29210138320922851562,1455903668.29215192794799804688,7888
230,1455903668.30197215080261230469,1455903668.301990509033203125,7888
231,1455903668.31181812286376953125,1455903668.31185603141784667969,7888
232,1455903668.32083344459533691406,1455903668.32087182998657226562,7888
233,1455903668.33045530319213867188,1455903668.330474853515625,7888
234,1455903668.34009885787963867188,1455903668.34016513824462890625,7888
235,1455903668.34927916526794433594,1455903668.34929800033569335938,7888
236,1455903668.35826182365417480469,1455903668.35828042030334472656,7888
237,1455903668.36803698539733886719,1455903668.36809563636779785156,7888
238,1455903668.37752437591552734375,1455903668.37754273414611816406,7888
239,1455903668.38717913627624511719,1455903668.38721776008605957031,7880
240,1455903668.39694619178771972656,1455903668.39698576927185058594,7880
241,1455903668.40660429000854492188,1455903668.40662312507629394531,7880
242,1455903668.41587591171264648438,1455903668.4158954620361328125,7880
243,1455903668.42544245719909667969,1455903668.42546129226684570312,7880
244,1455903668.43485927581787109375,1455903668.43487763404846191406,7880
245,1455903668.44403338432312011719,1455903668.44405198097229003906,7872
246,1455903668.45342898368835449219,1455903668.45344591140747070312,7872
247,1455903668.46296215057373046875,1455903668.46300053596496582031,7872
248,1455903668.47208690643310546875,1455903668.47210431098937988281,7872
249,1455903668.48184418678283691406,1455903668.48192882537841796875,7872
250,1455903668.49144482612609863281,1455903668.49150371551513671875,7864
251,1455903668.5008373260498046875,1455903668.50085735321044921875,7864
252,1455903668.51014018058776855469,1455903668.51015615463256835938,7864
253,1455903668.51970028877258300781,1455903668.51973986625671386719,7864
254,1455903668.52957868576049804688,1455903668.52962422370910644531,7856
255,1455903668.53871870040893554688,1455903668.53873658180236816406,7856
256,1455903668.54939603805541992188,1455903668.54941391944885253906,7856
257,1455903668.55921220779418945312,1455903668.55926418304443359375,7848
258,1455903668.5686130523681640625,1455903668.56863117218017578125,7848
259,1455903668.57849669456481933594,1455903668.57851505279541015625,7848
260,1455903668.58826422691345214844,1455903668.58828449249267578125,7840
261,1455903668.59785437583923339844,1455903668.59787297248840332031,7840
262,1455903668.60716772079467773438,1455903668.60718631744384765625,7840
263,1455903668.61662650108337402344,1455903668.61668419837951660156,7832
264,1455903668.62601757049560546875,1455903668.62603616714477539062,7832
265,1455903668.63574671745300292969,1455903668.63576483726501464844,7824
266,1455903668.64536118507385253906,1455903668.64537954330444335938,7824
267,1455903668.65481519699096679688,1455903668.65483379364013671875,7824
268,1455903668.66447806358337402344,1455903668.66451478004455566406,7816
269,1455903668.67407155036926269531,1455903668.67409181594848632812,7816
270,1455903668.68352174758911132812,1455903668.68354129791259765625,7808
271,1455903668.69309544563293457031,1455903668.69315624237060546875,7808
272,1455903668.702808380126953125,1455903668.70282745361328125,7800
273,1455903668.71284627914428710938,1455903668.7129058837890625,7800
274,1455903668.72232270240783691406,1455903668.72236323356628417969,7792
275,1455903668.73215627670288085938,1455903668.73219728469848632812,7792
