id, time (s), size (bits)
0,1455903666.10550808906555175781,1455903666.10554647445678710938,6104
1,1455903666.11577653884887695312,1455903666.11579203605651855469,6232
2,1455903666.12528252601623535156,1455903666.12529802322387695312,6248
3,1455903666.13428187370300292969,1455903666.13429760932922363281,6256
4,1455903666.14371919631958007812,1455903666.14373254776000976562,6272
5,1455903666.15287017822265625,1455903666.15288567543029785156,6280
6,1455903666.16238760948181152344,1455903666.16240286827087402344,6296
7,1455903666.17174863815307617188,1455903666.17176413536071777344,6304
8,1455903666.18112850189208984375,1455903666.18114590644836425781,6320
9,1455903666.19019770622253417969,1455903666.19021320343017578125,6328
10,1455903666.19977164268493652344,1455903666.1997852325439453125,6344
11,1455903666.20890450477600097656,1455903666.20891928672790527344,6352
12,1455903666.21843361854553222656,1455903666.21844935417175292969,6360
13,1455903666.22825908660888671875,1455903666.22827434539794921875,6376
14,1455903666.23744750022888183594,1455903666.2374629974365234375,6384
15,1455903666.24711728096008300781,1455903666.24713182449340820312,6400
16,1455903666.25653862953186035156,1455903666.25655364990234375,6408
17,1455903666.2660694122314453125,1455903666.26610445976257324219,6424
18,1455903666.27524280548095703125,1455903666.27525806427001953125,6432
19,1455903666.28498721122741699219,1455903666.28502058982849121094,6448
20,1455903666.29496622085571289062,1455903666.29498195648193359375,6456
21,1455903666.30408382415771484375,1455903666.30409979820251464844,6472
22,1455903666.3135623931884765625,1455903666.31357812881469726562,6480
23,1455903666.32337498664855957031,1455903666.32339119911193847656,6496
24,1455903666.33284163475036621094,1455903666.33285832405090332031,6504
25,1455903666.34217119216918945312,1455903666.34218716621398925781,6520
26,1455903666.35164785385131835938,1455903666.35166454315185546875,6528
27,1455903666.36082410812377929688,1455903666.36084032058715820312,6536
28,1455903666.3700008392333984375,1455903666.37001681327819824219,6552
29,1455903666.37953615188598632812,1455903666.37955188751220703125,6560
30,1455903666.38886880874633789062,1455903666.38888502120971679688,6576
31,1455903666.39767098426818847656,1455903666.39768671989440917969,6584
32,1455903666.40713667869567871094,1455903666.40715289115905761719,6592
33,1455903666.4165515899658203125,1455903666.41656756401062011719,6608
34,1455903666.42583966255187988281,1455903666.42585682868957519531,6616
35,1455903666.43569850921630859375,1455903666.43571615219116210938,6632
36,1455903666.44536137580871582031,1455903666.44537782669067382812,6640
37,1455903666.45463824272155761719,1455903666.45465588569641113281,6656
38,1455903666.46380448341369628906,1455903666.46382117271423339844,6664
39,1455903666.47356295585632324219,1455903666.47357988357543945312,6672
40,1455903666.48291468620300292969,1455903666.48292994499206542969,6688
41,1455903666.49246072769165039062,1455903666.49247765541076660156,6696
42,1455903666.50221490859985351562,1455903666.50223231315612792969,6712
43,1455903666.51198649406433105469,1455903666.51200413703918457031,6720
44,1455903666.52186942100524902344,1455903666.52188658714294433594,6728
45,1455903666.53162264823913574219,1455903666.53163790702819824219,6744
46,1455903666.54133653640747070312,1455903666.54135203361511230469,6752
47,1455903666.550655364990234375,1455903666.55067133903503417969,6768
48,1455903666.56062746047973632812,1455903666.56064319610595703125,6776
49,1455903666.57011342048645019531,1455903666.57012915611267089844,6792
50,1455903666.57956075668334960938,1455903666.57957768440246582031,6800
51,1455903666.58926939964294433594,1455903666.58928537368774414062,6808
52,1455903666.59894227981567382812,1455903666.59895777702331542969,6824
53,1455903666.60843515396118164062,1455903666.60845303535461425781,6832
54,1455903666.61818003654479980469,1455903666.61819601058959960938,6840
55,1455903666.62749242782592773438,1455903666.6275081634521484375,6856
56,1455903666.63663721084594726562,1455903666.63665366172790527344,6864
57,1455903666.646381378173828125,1455903666.646396636962890625,6872
58,1455903666.656040191650390625,1455903666.656078338623046875,6888
59,1455903666.66584467887878417969,1455903666.66586065292358398438,6896
60,1455903666.67545056343078613281,1455903666.67546701431274414062,6912
61,1455903666.68542003631591796875,1455903666.68546533584594726562,6920
62,1455903666.69493341445922851562,1455903666.69495248794555664062,6928
63,1455903666.70433306694030761719,1455903666.70435094833374023438,6944
64,1455903666.71441411972045898438,1455903666.7144298553466796875,6952
65,1455903666.7239780426025390625,1455903666.72399401664733886719,6960
66,1455903666.73291444778442382812,1455903666.73293066024780273438,6968
67,1455903666.74296998977661132812,1455903666.74298572540283203125,6984
68,1455903666.75241518020629882812,1455903666.75243091583251953125,6992
69,1455903666.76163196563720703125,1455903666.7616481781005859375,7000
70,1455903666.77157759666442871094,1455903666.77161002159118652344,7016
71,1455903666.78142118453979492188,1455903666.78143811225891113281,7024
72,1455903666.79074645042419433594,1455903666.79076242446899414062,7032
73,1455903666.80036401748657226562,1455903666.80037975311279296875,7048
74,1455903666.81020092964172363281,1455903666.81021857261657714844,7056
75,1455903666.81978487968444824219,1455903666.81980228424072265625,7064
76,1455903666.82952046394348144531,1455903666.82953763008117675781,7072
77,1455903666.83900666236877441406,1455903666.83902430534362792969,7088
78,1455903666.84872150421142578125,1455903666.84873914718627929688,7096
79,1455903666.85817289352416992188,1455903666.85819029808044433594,7104
80,1455903666.86766934394836425781,1455903666.86768865585327148438,7112
81,1455903666.87749385833740234375,1455903666.8775119781494140625,7128
82,1455903666.88669633865356445312,1455903666.88671469688415527344,7136
83,1455903666.89652323722839355469,1455903666.89657139778137207031,7144
84,1455903666.906070709228515625,1455903666.90608763694763183594,7152
85,1455903666.91551494598388671875,1455903666.91553330421447753906,7168
86,1455903666.92484903335571289062,1455903666.92486691474914550781,7176
87,1455903666.93472337722778320312,1455903666.93474149703979492188,7184
88,1455903666.94425439834594726562,1455903666.9442729949951171875,7192
89,1455903666.95451331138610839844,1455903666.95453190803527832031,7200
90,1455903666.96462750434875488281,1455903666.9646453857421875,7216
91,1455903666.97402358055114746094,1455903666.97404170036315917969,7224
92,1455903666.98424887657165527344,1455903666.98426723480224609375,7232
93,1455903666.99386548995971679688,1455903666.99388337135314941406,7240
94,1455903667.00364708900451660156,1455903667.00366520881652832031,7248
95,1455903667.01344656944274902344,1455903667.01346611976623535156,7264
96,1455903667.02317166328430175781,1455903667.02318906784057617188,7272
97,1455903667.03277373313903808594,1455903667.03279209136962890625,7280
98,1455903667.04268980026245117188,1455903667.04270887374877929688,7288
99,1455903667.05258536338806152344,1455903667.05260324478149414062,7296
100,1455903667.06206369400024414062,1455903667.06208062171936035156,7304
101,1455903667.07161307334899902344,1455903667.07163119316101074219,7312
102,1455903667.08126735687255859375,1455903667.0812854766845703125,7328
103,1455903667.09112048149108886719,1455903667.09113812446594238281,7336
104,1455903667.10047268867492675781,1455903667.100490570068359375,7344
105,1455903667.110134124755859375,1455903667.11015224456787109375,7352
106,1455903667.12016940116882324219,1455903667.12018704414367675781,7360
107,1455903667.12951922416687011719,1455903667.12953877449035644531,7368
108,1455903667.1391506195068359375,1455903667.13916873931884765625,7376
109,1455903667.14899182319641113281,1455903667.14900946617126464844,7384
110,1455903667.15841317176818847656,1455903667.15843152999877929688,7392
111,1455903667.16822791099548339844,1455903667.16824483871459960938,7400
112,1455903667.17818808555603027344,1455903667.17820453643798828125,7408
113,1455903667.18788123130798339844,1455903667.18789982795715332031,7416
114,1455903667.19756531715393066406,1455903667.19758343696594238281,7424
115,1455903667.20703196525573730469,1455903667.207050323486328125,7432
116,1455903667.21638441085815429688,1455903667.21640443801879882812,7440
117,1455903667.22635293006896972656,1455903667.22637081146240234375,7448
118,1455903667.2362270355224609375,1455903667.23624491691589355469,7456
119,1455903667.24573636054992675781,1455903667.245754241943359375,7464
120,1455903667.25533580780029296875,1455903667.2553539276123046875,7472
121,1455903667.26509571075439453125,1455903667.26511311531066894531,7480
122,1455903667.2750568389892578125,1455903667.27507472038269042969,7488
123,1455903667.28478646278381347656,1455903667.28480458259582519531,7496
124,1455903667.29482984542846679688,1455903667.29486751556396484375,7504
125,1455903667.30448222160339355469,1455903667.30450129508972167969,7512
126,1455903667.31377363204956054688,1455903667.31379222869873046875,7520
127,1455903667.32354331016540527344,1455903667.32356142997741699219,7528
128,1455903667.33350872993469238281,1455903667.33352637290954589844,7536
129,1455903667.34305429458618164062,1455903667.34310102462768554688,7544
130,1455903667.35281157493591308594,1455903667.35285162925720214844,7552
131,1455903667.36253952980041503906,1455903667.36257910728454589844,7560
132,1455903667.37182116508483886719,1455903667.37183928489685058594,7560
133,1455903667.381336212158203125,1455903667.38135409355163574219,7568
134,1455903667.39130330085754394531,1455903667.39132213592529296875,7576
135,1455903667.4007587432861328125,1455903667.40077662467956542969,7584
136,1455903667.41041636466979980469,1455903667.41043400764465332031,7592
137,1455903667.42013907432556152344,1455903667.42015719413757324219,7600
138,1455903667.42971158027648925781,1455903667.42973017692565917969,7600
139,1455903667.43957495689392089844,1455903667.43961238861083984375,7608
140,1455903667.44905161857604980469,1455903667.44906735420227050781,7616
141,1455903667.45891547203063964844,1455903667.45893311500549316406,7624
142,1455903667.46868085861206054688,1455903667.46869874000549316406,7632
143,1455903667.47865962982177734375,1455903667.47867870330810546875,7640
144,1455903667.48800396919250488281,1455903667.48802113533020019531,7640
145,1455903667.49744629859924316406,1455903667.49746417999267578125,7648
146,1455903667.50722956657409667969,1455903667.50724744796752929688,7656
147,1455903667.51715874671936035156,1455903667.51717734336853027344,7664
148,1455903667.52664041519165039062,1455903667.52665877342224121094,7664
149,1455903667.53674983978271484375,1455903667.53676843643188476562,7672
150,1455903667.54677796363830566406,1455903667.54679560661315917969,7680
151,1455903667.55633044242858886719,1455903667.5563488006591796875,7688
152,1455903667.56609082221984863281,1455903667.56611013412475585938,7688
153,1455903667.5759029388427734375,1455903667.57592105865478515625,7696
154,1455903667.58558607101440429688,1455903667.58560466766357421875,7704
155,1455903667.59550452232360839844,1455903667.59552264213562011719,7704
156,1455903667.6051082611083984375,1455903667.60512614250183105469,7712
157,1455903667.61444020271301269531,1455903667.61445879936218261719,7720
158,1455903667.6240940093994140625,1455903667.62411069869995117188,7720
159,1455903667.63394284248352050781,1455903667.63396048545837402344,7728
160,1455903667.64379000663757324219,1455903667.64380717277526855469,7736
161,1455903667.65346240997314453125,1455903667.65348148345947265625,7736
162,1455903667.663463592529296875,1455903667.66348147392272949219,7744
163,1455903667.6728496551513671875,1455903667.67286753654479980469,7744
164,1455903667.68264937400817871094,1455903667.68266749382019042969,7752
165,1455903667.69179105758666992188,1455903667.69181299209594726562,7760
166,1455903667.70076298713684082031,1455903667.70078206062316894531,7760
167,1455903667.70983147621154785156,1455903667.70985102653503417969,7768
168,1455903667.71901202201843261719,1455903667.719028472900390625,7768
169,1455903667.72804331779479980469,1455903667.7280597686767578125,7776
170,1455903667.73694014549255371094,1455903667.73695826530456542969,7776
171,1455903667.74603366851806640625,1455903667.74605011940002441406,7784
172,1455903667.7550487518310546875,1455903667.75506353378295898438,7784
173,1455903667.76426291465759277344,1455903667.76427721977233886719,7792
174,1455903667.77343297004699707031,1455903667.77344727516174316406,7792
175,1455903667.782566070556640625,1455903667.78258156776428222656,7800
176,1455903667.79220533370971679688,1455903667.79221963882446289062,7800
177,1455903667.80125093460083007812,1455903667.801265716552734375,7800
178,1455903667.81090450286865234375,1455903667.81092000007629394531,7808
179,1455903667.82045006752014160156,1455903667.82049417495727539062,7808
180,1455903667.8291473388671875,1455903667.82916355133056640625,7816
181,1455903667.83814382553100585938,1455903667.83815908432006835938,7816
182,1455903667.8477630615234375,1455903667.84777760505676269531,7824
183,1455903667.85736131668090820312,1455903667.85737705230712890625,7824
184,1455903667.86662364006042480469,1455903667.86663913726806640625,7824
185,1455903667.87630438804626464844,1455903667.87631964683532714844,7832
186,1455903667.8855762481689453125,1455903667.88559103012084960938,7832
187,1455903667.89512205123901367188,1455903667.89513802528381347656,7840
188,1455903667.90493869781494140625,1455903667.90497493743896484375,7840
189,1455903667.91455721855163574219,1455903667.91457271575927734375,7840
190,1455903667.92379236221313476562,1455903667.92380881309509277344,7848
191,1455903667.93345475196838378906,1455903667.93347048759460449219,7848
192,1455903667.94337940216064453125,1455903667.94339466094970703125,7848
193,1455903667.95253968238830566406,1455903667.95255565643310546875,7856
194,1455903667.96258568763732910156,1455903667.96261811256408691406,7856
195,1455903667.97212386131286621094,1455903667.97213959693908691406,7856
196,1455903667.981319427490234375,1455903667.98133587837219238281,7864
197,1455903667.99066400527954101562,1455903667.99068093299865722656,7864
198,1455903668.00059437751770019531,1455903668.0006084442138671875,7864
199,1455903668.00964212417602539062,1455903668.00965785980224609375,7864
200,1455903668.01913714408874511719,1455903668.01915264129638671875,7872
201,1455903668.02876424789428710938,1455903668.02877974510192871094,7872
202,1455903668.03831911087036132812,1455903668.03833484649658203125,7872
203,1455903668.04722881317138671875,1455903668.04724407196044921875,7872
204,1455903668.0569477081298828125,1455903668.05696368217468261719,7872
205,1455903668.06659412384033203125,1455903668.06660938262939453125,7880
206,1455903668.07562041282653808594,1455903668.07563710212707519531,7880
207,1455903668.08452773094177246094,1455903668.08454298973083496094,7880
208,1455903668.09412097930908203125,1455903668.09413671493530273438,7880
209,1455903668.10359430313110351562,1455903668.10360860824584960938,7880
210,1455903668.11259317398071289062,1455903668.11260867118835449219,7880
211,1455903668.12211441993713378906,1455903668.12213015556335449219,7888
212,1455903668.13164830207824707031,1455903668.13166332244873046875,7888
213,1455903668.14099192619323730469,1455903668.14100742340087890625,7888
214,1455903668.15056753158569335938,1455903668.15058302879333496094,7888
215,1455903668.16044640541076660156,1455903668.16046309471130371094,7888
216,1455903668.16938877105712890625,1455903668.16940474510192871094,7888
217,1455903668.17908573150634765625,1455903668.17910170555114746094,7888
218,1455903668.18876695632934570312,1455903668.18878293037414550781,7888
219,1455903668.19784998893737792969,1455903668.19786620140075683594,7888
220,1455903668.20734286308288574219,1455903668.20735883712768554688,7888
221,1455903668.21715950965881347656,1455903668.21717548370361328125,7888
222,1455903668.22643423080444335938,1455903668.22645068168640136719,7888
223,1455903668.23604226112365722656,1455903668.23605823516845703125,7888
224,1455903668.24556231498718261719,1455903668.24557971954345703125,7888
225,1455903668.25535845756530761719,1455903668.25537443161010742188,7888
226,1455903668.26485562324523925781,1455903668.2648715972900390625,7888
227,1455903668.2743663787841796875,1455903668.27438235282897949219,7888
228,1455903668.28405880928039550781,1455903668.28407502174377441406,7888
229,1455903668.29360294342041015625,1455903668.29363679885864257812,7888
230,1455903668.30323767662048339844,1455903668.303253173828125,7888
231,1455903668.31310129165649414062,1455903668.31311750411987304688,7888
232,1455903668.32235932350158691406,1455903668.32239532470703125,7888
233,1455903668.33189654350280761719,1455903668.33191323280334472656,7888
234,1455903668.34154772758483886719,1455903668.341564178466796875,7888
235,1455903668.35052847862243652344,1455903668.350543975830078125,7888
236,1455903668.35954046249389648438,1455903668.35955667495727539062,7888
237,1455903668.36931300163269042969,1455903668.36932849884033203125,7888
238,1455903668.37890219688415527344,1455903668.37891840934753417969,7888
239,1455903668.38870191574096679688,1455903668.38874030113220214844,7880
240,1455903668.39824938774108886719,1455903668.39826512336730957031,7880
241,1455903668.40786004066467285156,1455903668.40787672996520996094,7880
242,1455903668.41715979576110839844,1455903668.41717696189880371094,7880
243,1455903668.42673087120056152344,1455903668.42674684524536132812,7880
244,1455903668.43637514114379882812,1455903668.43639087677001953125,7880
245,1455903668.44530034065246582031,1455903668.44531655311584472656,7872
246,1455903668.45482110977172851562,1455903668.45483708381652832031,7872
247,1455903668.46428155899047851562,1455903668.46429753303527832031,7872
248,1455903668.47347021102905273438,1455903668.47348666191101074219,7872
249,1455903668.48322701454162597656,1455903668.48324298858642578125,7872
250,1455903668.49275088310241699219,1455903668.49276685714721679688,7864
251,1455903668.5020923614501953125,1455903668.50210857391357421875,7864
252,1455903668.51142191886901855469,1455903668.5114383697509765625,7864
253,1455903668.52107167243957519531,1455903668.52108812332153320312,7864
254,1455903668.53080534934997558594,1455903668.53082132339477539062,7856
255,1455903668.5401439666748046875,1455903668.54016160964965820312,7856
256,1455903668.55079770088195800781,1455903668.55081295967102050781,7856
257,1455903668.56055235862731933594,1455903668.56056952476501464844,7848
258,1455903668.57007288932800292969,1455903668.57008957862854003906,7848
259,1455903668.57999753952026367188,1455903668.58001446723937988281,7848
260,1455903668.589778900146484375,1455903668.5897979736328125,7840
261,1455903668.59934687614440917969,1455903668.59936380386352539062,7840
262,1455903668.60847449302673339844,1455903668.60849118232727050781,7840
263,1455903668.61795544624328613281,1455903668.61797189712524414062,7832
264,1455903668.62749958038330078125,1455903668.62751722335815429688,7832
265,1455903668.63718700408935546875,1455903668.63720393180847167969,7824
266,1455903668.646881103515625,1455903668.646915435791015625,7824
267,1455903668.65614056587219238281,1455903668.65615820884704589844,7824
268,1455903668.66577696800231933594,1455903668.66579413414001464844,7816
269,1455903668.67536282539367675781,1455903668.67538118362426757812,7816
270,1455903668.68477392196655273438,1455903668.68479108810424804688,7808
271,1455903668.69442319869995117188,1455903668.69444060325622558594,7808
272,1455903668.70432257652282714844,1455903668.70436549186706542969,7800
273,1455903668.71411442756652832031,1455903668.71413135528564453125,7800
274,1455903668.72384405136108398438,1455903668.7238616943359375,7792
275,1455903668.73348355293273925781,1455903668.73350501060485839844,7792
