id, time (s), size (bits)
0,1456030003.26915597915649414062,1456030003.26989793777465820312,6504
1,1456030003.36276078224182128906,1456030003.363422393798828125,6392
2,1456030003.45887541770935058594,1456030003.45954561233520507812,6272
3,1456030003.55910158157348632812,1456030003.55976963043212890625,6144
4,1456030003.6618824005126953125,1456030003.66291141510009765625,6016
5,1456030003.75837349891662597656,1456030003.75904583930969238281,5896
6,1456030003.85914564132690429688,1456030003.8598232269287109375,5768
7,1456030003.95915269851684570312,1456030003.95994162559509277344,5648
8,1456030004.06003880500793457031,1456030004.06069231033325195312,5520
9,1456030004.15575313568115234375,1456030004.15643358230590820312,5408
10,1456030004.25914406776428222656,1456030004.25980353355407714844,5288
11,1456030004.35566759109497070312,1456030004.35633754730224609375,5184
12,1456030004.45592641830444335938,1456030004.45657968521118164062,5080
13,1456030004.55997109413146972656,1456030004.56063866615295410156,4976
14,1456030004.66005587577819824219,1456030004.66071724891662597656,4880
15,1456030004.75561666488647460938,1456030004.75627946853637695312,4792
16,1456030004.85990262031555175781,1456030004.86065077781677246094,4704
17,1456030004.95945715904235839844,1456030004.96012043952941894531,4632
18,1456030005.05892419815063476562,1456030005.05957484245300292969,4560
19,1456030005.1552982330322265625,1456030005.15605688095092773438,4496
20,1456030005.25871157646179199219,1456030005.25937509536743164062,4440
21,1456030005.35903716087341308594,1456030005.35971236228942871094,4400
22,1456030005.45543742179870605469,1456030005.45609784126281738281,4360
23,1456030005.55611062049865722656,1456030005.55676984786987304688,4328
24,1456030005.65910744667053222656,1456030005.65976214408874511719,4304
25,1456030005.75881147384643554688,1456030005.75961470603942871094,4296
26,1456030005.85559034347534179688,1456030005.85626244544982910156,4296
27,1456030005.95925617218017578125,1456030005.95991420745849609375,4296
28,1456030006.05583596229553222656,1456030006.05649280548095703125,4312
29,1456030006.15931653976440429688,1456030006.15999817848205566406,4336
30,1456030006.25900197029113769531,1456030006.25966620445251464844,4368
31,1456030006.36024999618530273438,1456030006.3609142303466796875,4408
32,1456030006.45589852333068847656,1456030006.45655775070190429688,4448
33,1456030006.55569314956665039062,1456030006.55636668205261230469,4504
34,1456030006.65976738929748535156,1456030006.66051459312438964844,4576
35,1456030006.75929880142211914062,1456030006.75995182991027832031,4640
36,1456030006.85581159591674804688,1456030006.85647320747375488281,4720
37,1456030006.95899796485900878906,1456030006.95966625213623046875,4808
38,1456030007.05922031402587890625,1456030007.05988740921020507812,4896
39,1456030007.15902185440063476562,1456030007.1597080230712890625,4992
40,1456030007.25511407852172851562,1456030007.25577712059020996094,5088
41,1456030007.35941576957702636719,1456030007.36006808280944824219,5200
42,1456030007.45854330062866210938,1456030007.45919752120971679688,5312
43,1456030007.55947399139404296875,1456030007.56025600433349609375,5432
44,1456030007.66231203079223632812,1456030007.66296792030334472656,5552
45,1456030007.75891780853271484375,1456030007.75957179069519042969,5664
46,1456030007.85926079750061035156,1456030007.85991263389587402344,5792
47,1456030007.95954990386962890625,1456030007.96020412445068359375,5920
48,1456030008.05997920036315917969,1456030008.06064558029174804688,6040
49,1456030008.15615725517272949219,1456030008.15684103965759277344,6160
50,1456030008.25922274589538574219,1456030008.25988602638244628906,6288
51,1456030008.35949444770812988281,1456030008.36014080047607421875,6416
52,1456030008.46262478828430175781,1456030008.46338868141174316406,6544
53,1456030008.55917334556579589844,1456030008.55983209609985351562,6656
54,1456030008.65985131263732910156,1456030008.66050744056701660156,6776
55,1456030008.75955557823181152344,1456030008.76019692420959472656,6896
56,1456030008.85960721969604492188,1456030008.8602733612060546875,7000
57,1456030008.95970702171325683594,1456030008.96037459373474121094,7112
58,1456030009.05629205703735351562,1456030009.05695319175720214844,7208
59,1456030009.1591510772705078125,1456030009.15983104705810546875,7304
60,1456030009.25539517402648925781,1456030009.25605344772338867188,7392
61,1456030009.36299467086791992188,1456030009.36376333236694335938,7480
62,1456030009.45982408523559570312,1456030009.46049261093139648438,7552
63,1456030009.57928872108459472656,1456030009.57998156547546386719,7624
64,1456030009.70389890670776367188,1456030009.7045688629150390625,7704
65,1456030009.82931780815124511719,1456030009.82998013496398925781,7760
66,1456030009.95578789710998535156,1456030009.95645666122436523438,7816
67,1456030010.08296442031860351562,1456030010.08362483978271484375,7856
68,1456030010.21069025993347167969,1456030010.21148395538330078125,7880
69,1456030010.33877491950988769531,1456030010.33974504470825195312,7888
70,1456030010.46696805953979492188,1456030010.46774435043334960938,7888
71,1456030010.59527873992919921875,1456030010.59595251083374023438,7872
72,1456030010.72326517105102539062,1456030010.72392201423645019531,7840
73,1456030010.850780487060546875,1456030010.85153055191040039062,7792
74,1456030010.97765231132507324219,1456030010.97832250595092773438,7736
75,1456030011.10356450080871582031,1456030011.10423684120178222656,7664
76,1456030011.2286357879638671875,1456030011.22929525375366210938,7584
77,1456030011.35260701179504394531,1456030011.35332202911376953125,7488
78,1456030011.5374431610107421875,1456030011.53809857368469238281,7304
79,1456030011.66017413139343261719,1456030011.6608791351318359375,7192
80,1456030011.78079199790954589844,1456030011.7815380096435546875,7064
81,1456030011.82956910133361816406,1456030011.8302154541015625,7032
82,1456030011.94617223739624023438,1456030011.94680571556091308594,6888
83,1456030012.13304233551025390625,1456030012.13370943069458007812,6664
84,1456030012.24724984169006347656,1456030012.24809050559997558594,6528
85,1456030012.27921986579895019531,1456030012.27988886833190917969,6496
86,1456030012.44478726387023925781,1456030012.44544219970703125,6288
87,1456030012.55599498748779296875,1456030012.55665445327758789062,6144
88,1456030012.59791469573974609375,1456030012.59857940673828125,6096
89,1456030012.74174785614013671875,1456030012.74242520332336425781,5912
90,1456030012.84187865257263183594,1456030012.84253787994384765625,5792
91,1456030012.94118380546569824219,1456030012.9419994354248046875,5664
92,1456030013.0408039093017578125,1456030013.04154920578002929688,5544
93,1456030013.15908861160278320312,1456030013.15975189208984375,5408
94,1456030013.26256895065307617188,1456030013.26324939727783203125,5288
95,1456030013.35909628868103027344,1456030013.35975933074951171875,5184
96,1456030013.46160531044006347656,1456030013.46227979660034179688,5072
97,1456030013.55783987045288085938,1456030013.55851507186889648438,4976
98,1456030013.64546537399291992188,1456030013.64612531661987304688,4888
99,1456030013.74182653427124023438,1456030013.74249815940856933594,4808
100,1456030013.84507894515991210938,1456030013.84582352638244628906,4720
101,1456030013.9414958953857421875,1456030013.94221282005310058594,4640
102,1456030014.04148006439208984375,1456030014.04215240478515625,4568
103,1456030014.14106726646423339844,1456030014.1413822174072265625,4504
104,1456030014.24105405807495117188,1456030014.24184441566467285156,4448
105,1456030014.34242749214172363281,1456030014.34308958053588867188,4400
106,1456030014.37384629249572753906,1456030014.3745269775390625,4392
107,1456030014.45806646347045898438,1456030014.45872330665588378906,4360
108,1456030014.54196715354919433594,1456030014.54279422760009765625,4336
109,1456030014.64440655708312988281,1456030014.64509224891662597656,4312
110,1456030014.74069166183471679688,1456030014.74146628379821777344,4296
111,1456030014.84246325492858886719,1456030014.84311556816101074219,4296
112,1456030014.86027884483337402344,1456030014.86091732978820800781,4296
113,1456030014.9419193267822265625,1456030014.94258809089660644531,4296
114,1456030015.04108548164367675781,1456030015.04191517829895019531,4312
115,1456030015.14293408393859863281,1456030015.14361810684204101562,4328
116,1456030015.24448132514953613281,1456030015.24513173103332519531,4360
117,1456030015.25553917884826660156,1456030015.25615286827087402344,4360
118,1456030015.35908055305480957031,1456030015.35974979400634765625,4408
119,1456030015.45965170860290527344,1456030015.46042633056640625,4456
120,1456030015.51580286026000976562,1456030015.51644730567932128906,4480
121,1456030015.55916047096252441406,1456030015.55987405776977539062,4512
122,1456030015.64158296585083007812,1456030015.64226126670837402344,4560
123,1456030015.75914621353149414062,1456030015.75979733467102050781,4640
124,1456030015.84190225601196289062,1456030015.84256577491760253906,4704
125,1456030015.85529327392578125,1456030015.85597753524780273438,4720
126,1456030015.96087718009948730469,1456030015.96169018745422363281,4808
127,1456030016.04090070724487304688,1456030016.0417499542236328125,4880
128,1456030016.16573548316955566406,1456030016.16638684272766113281,5000
129,1456030016.17687535285949707031,1456030016.17757201194763183594,5008
130,1456030016.25856924057006835938,1456030016.25921750068664550781,5096
131,1456030016.35974860191345214844,1456030016.36040258407592773438,5200
132,1456030016.45954465866088867188,1456030016.4602146148681640625,5312
133,1456030016.55619120597839355469,1456030016.55686807632446289062,5424
134,1456030016.65913987159729003906,1456030016.65976715087890625,5544
135,1456030016.75864553451538085938,1456030016.75939631462097167969,5664
136,1456030016.86234045028686523438,1456030016.86300206184387207031,5792
137,1456030016.95875191688537597656,1456030016.95940518379211425781,5912
138,1456030017.05910897254943847656,1456030017.05981302261352539062,6040
139,1456030017.15934109687805175781,1456030017.1600513458251953125,6168
140,1456030017.25848412513732910156,1456030017.25915622711181640625,6288
141,1456030017.36285901069641113281,1456030017.36351752281188964844,6424
142,1456030017.45942020416259765625,1456030017.46006989479064941406,6536
143,1456030017.55553865432739257812,1456030017.55619668960571289062,6656
144,1456030017.65588212013244628906,1456030017.65653634071350097656,6776
145,1456030017.75846815109252929688,1456030017.75913119316101074219,6888
146,1456030017.85935878753662109375,1456030017.86001873016357421875,7000
147,1456030017.95606493949890136719,1456030017.95673584938049316406,7104
148,1456030018.05881977081298828125,1456030018.05948710441589355469,7208
149,1456030018.16011452674865722656,1456030018.16079235076904296875,7304
150,1456030018.25644898414611816406,1456030018.25710511207580566406,7392
151,1456030018.36023426055908203125,1456030018.3608951568603515625,7480
152,1456030018.45688319206237792969,1456030018.45754408836364746094,7552
153,1456030018.563106536865234375,1456030018.56384706497192382812,7624
154,1456030018.65907955169677734375,1456030018.6597270965576171875,7688
155,1456030018.85285115242004394531,1456030018.8536090850830078125,7744
156,1456030018.8961181640625,1456030018.89676809310913085938,7792
157,1456030019.09820795059204101562,1456030019.09885621070861816406,7840
158,1456030019.1413974761962890625,1456030019.14207363128662109375,7864
159,1456030019.34599089622497558594,1456030019.34674572944641113281,7888
160,1456030019.39177846908569335938,1456030019.39244031906127929688,7888
161,1456030019.5949878692626953125,1456030019.59574937820434570312,7880
162,1456030019.7234783172607421875,1456030019.72413301467895507812,7864
163,1456030019.85140562057495117188,1456030019.85210824012756347656,7824
164,1456030019.89388060569763183594,1456030019.89453673362731933594,7776
165,1456030020.04932522773742675781,1456030020.04997277259826660156,7680
166,1456030020.17641568183898925781,1456030020.17718553543090820312,7600
167,1456030020.26990747451782226562,1456030020.27056455612182617188,7552
168,1456030020.42895865440368652344,1456030020.42961287498474121094,7408
169,1456030020.5528087615966796875,1456030020.55349183082580566406,7296
170,1456030020.6758937835693359375,1456030020.67655587196350097656,7176
171,1456030020.79829263687133789062,1456030020.798946380615234375,7048
172,1456030020.86896181106567382812,1456030020.86959314346313476562,6992
173,1456030021.03720164299011230469,1456030021.03787088394165039062,6784
174,1456030021.15376782417297363281,1456030021.15441632270812988281,6640
175,1456030021.20762157440185546875,1456030021.20829153060913085938,6600
176,1456030021.34265685081481933594,1456030021.34332323074340820312,6416
177,1456030021.444423675537109375,1456030021.44508385658264160156,6288
178,1456030021.55718636512756347656,1456030021.55793499946594238281,6144
179,1456030021.632770538330078125,1456030021.63345122337341308594,6056
180,1456030021.7408046722412109375,1456030021.74156093597412109375,5912
181,1456030021.85587477684020996094,1456030021.85652828216552734375,5768
182,1456030021.96033716201782226562,1456030021.96099734306335449219,5648
183,1456030022.05981349945068359375,1456030022.06048512458801269531,5520
184,1456030022.24097847938537597656,1456030022.24180817604064941406,5312
185,1456030022.34232473373413085938,1456030022.34300589561462402344,5200
186,1456030022.44202184677124023438,1456030022.44268250465393066406,5096
187,1456030022.46113729476928710938,1456030022.461948394775390625,5072
188,1456030022.55709028244018554688,1456030022.55774617195129394531,4976
189,1456030022.65923976898193359375,1456030022.65991616249084472656,4880
190,1456030022.74255108833312988281,1456030022.74326491355895996094,4800
191,1456030022.84272146224975585938,1456030022.843410491943359375,4720
192,1456030022.94180464744567871094,1456030022.94252610206604003906,4640
193,1456030023.04103422164916992188,1456030023.04181957244873046875,4568
194,1456030023.14491534233093261719,1456030023.14556288719177246094,4504
195,1456030023.24155783653259277344,1456030023.24222421646118164062,4448
196,1456030023.34154462814331054688,1456030023.34222173690795898438,4408
197,1456030023.362270355224609375,1456030023.36303734779357910156,4400
198,1456030023.45849585533142089844,1456030023.45915079116821289062,4360
199,1456030023.54088902473449707031,1456030023.54170083999633789062,4336
200,1456030023.64217734336853027344,1456030023.64284539222717285156,4312
201,1456030023.7446498870849609375,1456030023.7453174591064453125,4296
202,1456030023.84090781211853027344,1456030023.84170222282409667969,4296
203,1456030023.86079931259155273438,1456030023.86159396171569824219,4296
204,1456030023.94152188301086425781,1456030023.94218969345092773438,4296
205,1456030024.04523706436157226562,1456030024.04590439796447753906,4312
206,1456030024.14153003692626953125,1456030024.14218473434448242188,4328
207,1456030024.15759253501892089844,1456030024.15823340415954589844,4336
208,1456030024.24183702468872070312,1456030024.24251008033752441406,4360
209,1456030024.36174130439758300781,1456030024.36248254776000976562,4408
210,1456030024.44035005569458007812,1456030024.4409999847412109375,4440
211,1456030024.45769071578979492188,1456030024.45833182334899902344,4456
212,1456030024.55897212028503417969,1456030024.55963015556335449219,4512
213,1456030024.64148712158203125,1456030024.64225268363952636719,4560
214,1456030024.76363325119018554688,1456030024.76428866386413574219,4648
215,1456030024.77473402023315429688,1456030024.77545952796936035156,4656
216,1456030024.85940575599670410156,1456030024.86006760597229003906,4720
217,1456030024.955341339111328125,1456030024.95599842071533203125,4800
218,1456030025.05944848060607910156,1456030025.06009244918823242188,4896
219,1456030025.15896630287170410156,1456030025.15963220596313476562,4992
220,1456030025.25960469245910644531,1456030025.26027941703796386719,5096
221,1456030025.35903310775756835938,1456030025.35970759391784667969,5200
222,1456030025.45948195457458496094,1456030025.46025347709655761719,5312
223,1456030025.56303620338439941406,1456030025.56370520591735839844,5432
224,1456030025.65989160537719726562,1456030025.6605319976806640625,5544
225,1456030025.75565218925476074219,1456030025.75629878044128417969,5664
226,1456030025.85914731025695800781,1456030025.85981059074401855469,5792
227,1456030025.95475554466247558594,1456030025.95541644096374511719,5912
228,1456030026.05573272705078125,1456030026.0563907623291015625,6040
229,1456030026.15918564796447753906,1456030026.15986490249633789062,6168
230,1456030026.25992083549499511719,1456030026.26057696342468261719,6296
231,1456030026.35628938674926757812,1456030026.35705518722534179688,6416
232,1456030026.45808339118957519531,1456030026.45873785018920898438,6536
233,1456030026.5597686767578125,1456030026.5604305267333984375,6664
234,1456030026.65586352348327636719,1456030026.65652108192443847656,6776
235,1456030026.75848174095153808594,1456030026.75913715362548828125,6888
236,1456030026.8594036102294921875,1456030026.86006093025207519531,7000
237,1456030026.95938849449157714844,1456030026.9600467681884765625,7112
238,1456030027.05957102775573730469,1456030027.06023931503295898438,7208
239,1456030027.15977501869201660156,1456030027.16046047210693359375,7304
240,1456030027.259517669677734375,1456030027.26028013229370117188,7392
241,1456030027.35579967498779296875,1456030027.35645651817321777344,7480
242,1456030027.4555835723876953125,1456030027.45623373985290527344,7552
243,1456030027.559322357177734375,1456030027.5599842071533203125,7624
244,1456030027.65974378585815429688,1456030027.66039490699768066406,7688
245,1456030027.77088785171508789062,1456030027.77170205116271972656,7736
246,1456030027.88934230804443359375,1456030027.8899993896484375,7792
247,1456030028.01621985435485839844,1456030028.01686835289001464844,7840
248,1456030028.13625788688659667969,1456030028.13690280914306640625,7864
249,1456030028.26402807235717773438,1456030028.26480746269226074219,7888
250,1456030028.38483762741088867188,1456030028.38550233840942382812,7888
251,1456030028.51331686973571777344,1456030028.51398134231567382812,7880
252,1456030028.63358068466186523438,1456030028.63423037528991699219,7864
253,1456030028.76166224479675292969,1456030028.76231551170349121094,7824
254,1456030028.88881421089172363281,1456030028.88947367668151855469,7776
255,1456030029.05185437202453613281,1456030029.05253911018371582031,7680
256,1456030029.18082976341247558594,1456030029.18139719963073730469,7600
257,1456030029.26492214202880859375,1456030029.26558923721313476562,7552
258,1456030029.431194305419921875,1456030029.43209409713745117188,7400
259,1456030029.55499315261840820312,1456030029.55569124221801757812,7288
260,1456030029.67840361595153808594,1456030029.67906093597412109375,7168
261,1456030029.80039906501770019531,1456030029.80104827880859375,7048
262,1456030029.86352133750915527344,1456030029.86419415473937988281,6992
263,1456030030.03999948501586914062,1456030030.04064583778381347656,6776
264,1456030030.1565723419189453125,1456030030.15721797943115234375,6640
265,1456030030.20153880119323730469,1456030030.20217823982238769531,6600
266,1456030030.34221792221069335938,1456030030.34287095069885253906,6416
267,1456030030.4454135894775390625,1456030030.446178436279296875,6288
268,1456030030.55677723884582519531,1456030030.55742168426513671875,6144
269,1456030030.62999176979064941406,1456030030.63066959381103515625,6056
270,1456030030.74215817451477050781,1456030030.742824554443359375,5912
271,1456030030.856822967529296875,1456030030.8574924468994140625,5768
272,1456030030.95935773849487304688,1456030030.96002030372619628906,5648
273,1456030031.0592975616455078125,1456030031.05993962287902832031,5528
274,1456030031.24530291557312011719,1456030031.24595880508422851562,5304
275,1456030031.341114044189453125,1456030031.341899871826171875,5200
