id, time (s), size (bits)
0,1456030002.96636795997619628906,1456030002.96675372123718261719,6864
1,1456030003.06424641609191894531,1456030003.06445837020874023438,6752
2,1456030003.16086721420288085938,1456030003.16112208366394042969,6632
3,1456030003.2608318328857421875,1456030003.26104998588562011719,6512
4,1456030003.36130619049072265625,1456030003.3615131378173828125,6392
5,1456030003.46086215972900390625,1456030003.46107244491577148438,6264
6,1456030003.561237335205078125,1456030003.56144475936889648438,6144
7,1456030003.66071367263793945312,1456030003.66092634201049804688,6016
8,1456030003.76133251190185546875,1456030003.76154494285583496094,5888
9,1456030003.85749030113220214844,1456030003.85771822929382324219,5768
10,1456030003.96102619171142578125,1456030003.96123933792114257812,5640
11,1456030004.05754804611206054688,1456030004.05776572227478027344,5528
12,1456030004.15761661529541015625,1456030004.15783095359802246094,5408
13,1456030004.26146411895751953125,1456030004.26167440414428710938,5288
14,1456030004.36142492294311523438,1456030004.36164069175720214844,5184
15,1456030004.45808315277099609375,1456030004.4583415985107421875,5080
16,1456030004.56165719032287597656,1456030004.56186962127685546875,4976
17,1456030004.66110110282897949219,1456030004.66131329536437988281,4880
18,1456030004.76072192192077636719,1456030004.76093149185180664062,4792
19,1456030004.85719370841979980469,1456030004.85766649246215820312,4704
20,1456030004.96117234230041503906,1456030004.96138334274291992188,4624
21,1456030005.06082201004028320312,1456030005.06103634834289550781,4560
22,1456030005.15724229812622070312,1456030005.15745234489440917969,4496
23,1456030005.25778961181640625,1456030005.25805544853210449219,4440
24,1456030005.36107134819030761719,1456030005.36128067970275878906,4392
25,1456030005.46083712577819824219,1456030005.4610462188720703125,4360
26,1456030005.55731678009033203125,1456030005.55752515792846679688,4328
27,1456030005.66142535209655761719,1456030005.66163849830627441406,4304
28,1456030005.75753307342529296875,1456030005.75774216651916503906,4296
29,1456030005.86116909980773925781,1456030005.86139440536499023438,4296
30,1456030005.96126055717468261719,1456030005.96172070503234863281,4296
31,1456030006.06100773811340332031,1456030006.06122255325317382812,4312
32,1456030006.15769314765930175781,1456030006.15794515609741210938,4336
33,1456030006.25774455070495605469,1456030006.25795507431030273438,4368
34,1456030006.3610668182373046875,1456030006.3612804412841796875,4408
35,1456030006.46134161949157714844,1456030006.46155500411987304688,4456
36,1456030006.55767703056335449219,1456030006.55789089202880859375,4504
37,1456030006.66093564033508300781,1456030006.66114497184753417969,4576
38,1456030006.76098561286926269531,1456030006.76120281219482421875,4648
39,1456030006.86079883575439453125,1456030006.86102080345153808594,4720
40,1456030006.95703577995300292969,1456030006.95724892616271972656,4800
41,1456030007.06109976768493652344,1456030007.06131672859191894531,4896
42,1456030007.16047811508178710938,1456030007.16068911552429199219,4992
43,1456030007.26109051704406738281,1456030007.261302947998046875,5096
44,1456030007.36440038681030273438,1456030007.36486744880676269531,5208
45,1456030007.46062803268432617188,1456030007.46084332466125488281,5312
46,1456030007.56120514869689941406,1456030007.56141948699951171875,5432
47,1456030007.66132855415344238281,1456030007.661540985107421875,5552
48,1456030007.76141595840454101562,1456030007.76162695884704589844,5672
49,1456030007.85809946060180664062,1456030007.85836839675903320312,5792
50,1456030007.96067857742309570312,1456030007.96088719367980957031,5920
51,1456030008.06140375137329101562,1456030008.0616130828857421875,6040
52,1456030008.16177606582641601562,1456030008.16199254989624023438,6168
53,1456030008.26103734970092773438,1456030008.26124787330627441406,6296
54,1456030008.36192989349365234375,1456030008.36214423179626464844,6416
55,1456030008.46118569374084472656,1456030008.46139955520629882812,6544
56,1456030008.56129240989685058594,1456030008.56150269508361816406,6664
57,1456030008.66163945198059082031,1456030008.66185140609741210938,6776
58,1456030008.75804114341735839844,1456030008.75825810432434082031,6888
59,1456030008.86099767684936523438,1456030008.86122369766235351562,7000
60,1456030008.95729351043701171875,1456030008.95750784873962402344,7104
61,1456030009.06170225143432617188,1456030009.0619182586669921875,7208
62,1456030009.16134667396545410156,1456030009.16155886650085449219,7304
63,1456030009.25770831108093261719,1456030009.25793600082397460938,7392
64,1456030009.36417341232299804688,1456030009.36439108848571777344,7480
65,1456030009.46068978309631347656,1456030009.46094155311584472656,7552
66,1456030009.5806827545166015625,1456030009.58089447021484375,7624
67,1456030009.74368309974670410156,1456030009.743896484375,7736
68,1456030009.84287667274475097656,1456030009.84309029579162597656,7784
69,1456030009.95787405967712402344,1456030009.9580974578857421875,7816
70,1456030010.08515596389770507812,1456030010.08546209335327148438,7856
71,1456030010.25784897804260253906,1456030010.25806140899658203125,7888
72,1456030010.34125494956970214844,1456030010.34146857261657714844,7888
73,1456030010.46926331520080566406,1456030010.46947717666625976562,7888
74,1456030010.64312672615051269531,1456030010.64334249496459960938,7856
75,1456030010.74354290962219238281,1456030010.7437496185302734375,7824
76,1456030010.85265135765075683594,1456030010.85286092758178710938,7792
77,1456030010.97950315475463867188,1456030010.97971200942993164062,7728
78,1456030011.14375281333923339844,1456030011.14396333694458007812,7624
79,1456030011.24394655227661132812,1456030011.24417209625244140625,7552
80,1456030011.35333132743835449219,1456030011.35354089736938476562,7472
81,1456030011.47597908973693847656,1456030011.47619843482971191406,7376
82,1456030011.64341855049133300781,1456030011.6436405181884765625,7208
83,1456030011.74356245994567871094,1456030011.74377155303955078125,7104
84,1456030011.84314584732055664062,1456030011.84336209297180175781,7000
85,1456030011.96140766143798828125,1456030011.96161818504333496094,6864
86,1456030012.14654564857482910156,1456030012.14676213264465332031,6656
87,1456030012.25789403915405273438,1456030012.25810861587524414062,6520
88,1456030012.29588007926940917969,1456030012.29609560966491699219,6472
89,1456030012.4432353973388671875,1456030012.44346904754638671875,6288
90,1456030012.54358720779418945312,1456030012.54379510879516601562,6160
91,1456030012.64290070533752441406,1456030012.6431064605712890625,6040
92,1456030012.743194580078125,1456030012.74340844154357910156,5912
93,1456030012.86150765419006347656,1456030012.86172127723693847656,5768
94,1456030012.96423220634460449219,1456030012.96444606781005859375,5640
95,1456030013.06065440177917480469,1456030013.06086802482604980469,5520
96,1456030013.16164255142211914062,1456030013.16185665130615234375,5408
97,1456030013.25970816612243652344,1456030013.25991892814636230469,5296
98,1456030013.34428143501281738281,1456030013.34449362754821777344,5200
99,1456030013.44340491294860839844,1456030013.44363832473754882812,5096
100,1456030013.54708743095397949219,1456030013.54730510711669921875,4992
101,1456030013.643161773681640625,1456030013.64337420463562011719,4896
102,1456030013.74347281455993652344,1456030013.74368906021118164062,4800
103,1456030013.84315013885498046875,1456030013.84336400032043457031,4720
104,1456030013.943264007568359375,1456030013.94347643852233886719,4640
105,1456030014.04387879371643066406,1456030014.044094085693359375,4568
106,1456030014.07277274131774902344,1456030014.07298231124877929688,4552
107,1456030014.15930533409118652344,1456030014.15951514244079589844,4496
108,1456030014.24375128746032714844,1456030014.2439708709716796875,4448
109,1456030014.34395456314086914062,1456030014.34417939186096191406,4400
110,1456030014.44316887855529785156,1456030014.44338274002075195312,4368
111,1456030014.54365563392639160156,1456030014.54387211799621582031,4336
112,1456030014.56324934959411621094,1456030014.56346106529235839844,4328
113,1456030014.643795013427734375,1456030014.64400482177734375,4312
114,1456030014.7433872222900390625,1456030014.74359893798828125,4296
115,1456030014.8442592620849609375,1456030014.84447407722473144531,4296
116,1456030014.94466662406921386719,1456030014.94487929344177246094,4296
117,1456030014.95667815208435058594,1456030014.95792889595031738281,4296
118,1456030015.06110692024230957031,1456030015.06131982803344726562,4312
119,1456030015.16126966476440429688,1456030015.16149353981018066406,4336
120,1456030015.21814441680908203125,1456030015.21835732460021972656,4352
121,1456030015.26157093048095703125,1456030015.2617778778076171875,4368
122,1456030015.3434886932373046875,1456030015.34369778633117675781,4400
123,1456030015.46130609512329101562,1456030015.46151638031005859375,4456
124,1456030015.54302811622619628906,1456030015.543243408203125,4496
125,1456030015.55755758285522460938,1456030015.55776691436767578125,4504
126,1456030015.66245031356811523438,1456030015.66266798973083496094,4576
127,1456030015.74278759956359863281,1456030015.74301075935363769531,4632
128,1456030015.8643932342529296875,1456030015.86460399627685546875,4720
129,1456030015.87647795677185058594,1456030015.87778186798095703125,4728
130,1456030015.96092009544372558594,1456030015.96112728118896484375,4808
131,1456030016.06144618988037109375,1456030016.06166028976440429688,4896
132,1456030016.16127133369445800781,1456030016.16148304939270019531,4992
133,1456030016.25774455070495605469,1456030016.257965087890625,5096
134,1456030016.36105060577392578125,1456030016.36126446723937988281,5200
135,1456030016.46077847480773925781,1456030016.46099162101745605469,5312
136,1456030016.56114983558654785156,1456030016.56136846542358398438,5432
137,1456030016.66062831878662109375,1456030016.6608428955078125,5552
138,1456030016.76102924346923828125,1456030016.76124143600463867188,5672
139,1456030016.86159038543701171875,1456030016.86181044578552246094,5792
140,1456030016.96077871322631835938,1456030016.96099138259887695312,5920
141,1456030017.06422138214111328125,1456030017.06442952156066894531,6040
142,1456030017.16079807281494140625,1456030017.1610088348388671875,6168
143,1456030017.25730919837951660156,1456030017.25751829147338867188,6288
144,1456030017.35807514190673828125,1456030017.35828447341918945312,6416
145,1456030017.46067142486572265625,1456030017.46088409423828125,6544
146,1456030017.56105494499206542969,1456030017.56127071380615234375,6664
147,1456030017.65739274024963378906,1456030017.65760159492492675781,6776
148,1456030017.7606067657470703125,1456030017.76081585884094238281,6896
149,1456030017.86148357391357421875,1456030017.86170458793640136719,7000
150,1456030017.95780849456787109375,1456030017.95802354812622070312,7104
151,1456030018.06165981292724609375,1456030018.06186985969543457031,7208
152,1456030018.15779852867126464844,1456030018.15801239013671875,7304
153,1456030018.26456165313720703125,1456030018.26477408409118652344,7400
154,1456030018.36119174957275390625,1456030018.36140203475952148438,7480
155,1456030018.46136426925659179688,1456030018.46157598495483398438,7560
156,1456030018.56066632270812988281,1456030018.56088018417358398438,7624
157,1456030018.65718603134155273438,1456030018.65739774703979492188,7688
158,1456030018.77315998077392578125,1456030018.77336788177490234375,7744
159,1456030018.94257760047912597656,1456030018.94279742240905761719,7816
160,1456030019.06130671501159667969,1456030019.061511993408203125,7856
161,1456030019.14353847503662109375,1456030019.14375209808349609375,7872
162,1456030019.270481109619140625,1456030019.27068924903869628906,7888
163,1456030019.42765355110168457031,1456030019.42786860466003417969,7888
164,1456030019.54269576072692871094,1456030019.54290461540222167969,7872
165,1456030019.66056013107299804688,1456030019.6607761383056640625,7848
166,1456030019.76433396339416503906,1456030019.7645511627197265625,7824
167,1456030019.89180111885070800781,1456030019.8920116424560546875,7776
168,1456030020.04371714591979980469,1456030020.04392957687377929688,7688
169,1456030020.14398050308227539062,1456030020.14421868324279785156,7624
170,1456030020.26808762550354003906,1456030020.26829481124877929688,7552
171,1456030020.3917999267578125,1456030020.39201402664184570312,7456
172,1456030020.51354217529296875,1456030020.51375055313110351562,7352
173,1456030020.64434766769409179688,1456030020.64455699920654296875,7208
174,1456030020.75263261795043945312,1456030020.75284457206726074219,7104
175,1456030020.86964964866638183594,1456030020.86986184120178222656,6984
176,1456030021.04345655441284179688,1456030021.04386234283447265625,6776
177,1456030021.14645934104919433594,1456030021.14667606353759765625,6656
178,1456030021.25921487808227539062,1456030021.2594280242919921875,6520
179,1456030021.32293415069580078125,1456030021.32315111160278320312,6440
180,1456030021.44269704818725585938,1456030021.44291090965270996094,6288
181,1456030021.55769395828247070312,1456030021.55790686607360839844,6144
182,1456030021.66132330894470214844,1456030021.66153740882873535156,6016
183,1456030021.76186585426330566406,1456030021.76207637786865234375,5888
184,1456030021.94281435012817382812,1456030021.94302535057067871094,5664
185,1456030022.04358267784118652344,1456030022.04379129409790039062,5544
186,1456030022.14380645751953125,1456030022.14402079582214355469,5424
187,1456030022.16220521926879882812,1456030022.1624202728271484375,5408
188,1456030022.25896024703979492188,1456030022.25921130180358886719,5296
189,1456030022.36160206794738769531,1456030022.361827850341796875,5176
190,1456030022.44391798973083496094,1456030022.44412684440612792969,5088
191,1456030022.54422521591186523438,1456030022.54444956779479980469,4992
192,1456030022.64394330978393554688,1456030022.64415669441223144531,4896
193,1456030022.74334192276000976562,1456030022.74356150627136230469,4800
194,1456030022.84357714653015136719,1456030022.8437938690185546875,4720
195,1456030022.94285511970520019531,1456030022.9430713653564453125,4640
196,1456030023.043384552001953125,1456030023.0436000823974609375,4568
197,1456030023.06082940101623535156,1456030023.06103873252868652344,4560
198,1456030023.16037726402282714844,1456030023.16058397293090820312,4496
199,1456030023.24294543266296386719,1456030023.24317193031311035156,4448
200,1456030023.34356832504272460938,1456030023.34378004074096679688,4400
201,1456030023.44365429878234863281,1456030023.44386172294616699219,4360
202,1456030023.54319977760314941406,1456030023.54341483116149902344,4336
203,1456030023.56234383583068847656,1456030023.56254434585571289062,4328
204,1456030023.64341092109680175781,1456030023.643627166748046875,4312
205,1456030023.74415278434753417969,1456030023.74436473846435546875,4296
206,1456030023.843292236328125,1456030023.84350848197937011719,4296
207,1456030023.86062335968017578125,1456030023.86083722114562988281,4296
208,1456030023.94323110580444335938,1456030023.94344305992126464844,4296
209,1456030024.06103539466857910156,1456030024.06126570701599121094,4312
210,1456030024.14299035072326660156,1456030024.1432037353515625,4328
211,1456030024.16081690788269042969,1456030024.16102766990661621094,4336
212,1456030024.26135277748107910156,1456030024.26156735420227050781,4368
213,1456030024.3425922393798828125,1456030024.34280443191528320312,4400
214,1456030024.46089434623718261719,1456030024.46111202239990234375,4456
215,1456030024.47286725044250488281,1456030024.4741382598876953125,4456
216,1456030024.56094956398010253906,1456030024.56115698814392089844,4512
217,1456030024.65767979621887207031,1456030024.657928466796875,4568
218,1456030024.76166963577270507812,1456030024.76188135147094726562,4648
219,1456030024.86098456382751464844,1456030024.86121368408203125,4720
220,1456030024.96113562583923339844,1456030024.96134424209594726562,4808
221,1456030025.0609645843505859375,1456030025.06117606163024902344,4896
222,1456030025.16151523590087890625,1456030025.16191530227661132812,4992
223,1456030025.26432299613952636719,1456030025.26453948020935058594,5096
224,1456030025.36137413978576660156,1456030025.36175894737243652344,5200
225,1456030025.45763826370239257812,1456030025.45785021781921386719,5312
226,1456030025.56050086021423339844,1456030025.56071162223815917969,5432
227,1456030025.65705037117004394531,1456030025.65726542472839355469,5544
228,1456030025.75772762298583984375,1456030025.75794434547424316406,5664
229,1456030025.860469818115234375,1456030025.86068606376647949219,5792
230,1456030025.96120190620422363281,1456030025.96141195297241210938,5920
231,1456030026.057720184326171875,1456030026.05793929100036621094,6040
232,1456030026.16050481796264648438,1456030026.16071391105651855469,6168
233,1456030026.2613773345947265625,1456030026.26159119606018066406,6296
234,1456030026.35748934745788574219,1456030026.35769987106323242188,6416
235,1456030026.4607295989990234375,1456030026.46093273162841796875,6544
236,1456030026.56097269058227539062,1456030026.5611858367919921875,6664
237,1456030026.66160273551940917969,1456030026.66180872917175292969,6776
238,1456030026.76127338409423828125,1456030026.76148438453674316406,6896
239,1456030026.86148476600646972656,1456030026.86170887947082519531,7008
240,1456030026.96105265617370605469,1456030026.96126627922058105469,7112
241,1456030027.05738115310668945312,1456030027.0575962066650390625,7208
242,1456030027.1576900482177734375,1456030027.15790438652038574219,7304
243,1456030027.26126742362976074219,1456030027.26147794723510742188,7400
244,1456030027.36150097846984863281,1456030027.36171317100524902344,7480
245,1456030027.45785474777221679688,1456030027.45806288719177246094,7552
246,1456030027.56203126907348632812,1456030027.56224894523620605469,7624
247,1456030027.65855264663696289062,1456030027.65876507759094238281,7688
248,1456030027.76795268058776855469,1456030027.76816248893737792969,7744
249,1456030027.94363999366760253906,1456030027.94387149810791015625,7816
250,1456030028.06120848655700683594,1456030028.06142115592956542969,7856
251,1456030028.14320397377014160156,1456030028.14341211318969726562,7872
252,1456030028.27286005020141601562,1456030028.27310538291931152344,7888
253,1456030028.43799519538879394531,1456030028.43821406364440917969,7888
254,1456030028.54343962669372558594,1456030028.54365706443786621094,7872
255,1456030028.66081094741821289062,1456030028.66103649139404296875,7848
256,1456030028.76669073104858398438,1456030028.76690244674682617188,7824
257,1456030028.89387989044189453125,1456030028.89409303665161132812,7776
258,1456030029.04369425773620605469,1456030029.04390978813171386719,7688
259,1456030029.14604353904724121094,1456030029.14626455307006835938,7624
260,1456030029.27039313316345214844,1456030029.27060770988464355469,7544
261,1456030029.39368796348571777344,1456030029.39390015602111816406,7456
262,1456030029.51579880714416503906,1456030029.5160121917724609375,7344
263,1456030029.64424157142639160156,1456030029.64445233345031738281,7208
264,1456030029.75471782684326171875,1456030029.75493121147155761719,7104
265,1456030029.87171578407287597656,1456030029.87192821502685546875,6984
266,1456030030.04380536079406738281,1456030030.04401850700378417969,6776
267,1456030030.14694428443908691406,1456030030.14715433120727539062,6656
268,1456030030.25859236717224121094,1456030030.25881099700927734375,6520
269,1456030030.3251361846923828125,1456030030.32546520233154296875,6432
270,1456030030.44353485107421875,1456030030.44374895095825195312,6288
271,1456030030.55854368209838867188,1456030030.55875611305236816406,6144
272,1456030030.66141724586486816406,1456030030.66162776947021484375,6016
273,1456030030.76106691360473632812,1456030030.76128172874450683594,5888
274,1456030030.94409275054931640625,1456030030.9442996978759765625,5664
275,1456030031.04316878318786621094,1456030031.04338240623474121094,5544
276,1456030031.14386463165283203125,1456030031.14407300949096679688,5424
