id, time (s), size (bits)
0,1456030003.06749773025512695312,1456030003.06797742843627929688,6744
1,1456030003.16330814361572265625,1456030003.16352558135986328125,6632
2,1456030003.25968480110168457031,1456030003.25989508628845214844,6512
3,1456030003.35961437225341796875,1456030003.35982489585876464844,6392
4,1456030003.46043634414672851562,1456030003.4606475830078125,6264
5,1456030003.55947208404541015625,1456030003.55967879295349121094,6144
6,1456030003.65991544723510742188,1456030003.66012644767761230469,6016
7,1456030003.75962781906127929688,1456030003.75983905792236328125,5888
8,1456030003.86048412322998046875,1456030003.86069726943969726562,5768
9,1456030003.956451416015625,1456030003.95667862892150878906,5648
10,1456030004.05990314483642578125,1456030004.060115814208984375,5520
11,1456030004.15633344650268554688,1456030004.15655612945556640625,5408
12,1456030004.25658750534057617188,1456030004.25680041313171386719,5296
13,1456030004.36066889762878417969,1456030004.36088347434997558594,5176
14,1456030004.46064352989196777344,1456030004.46085691452026367188,5072
15,1456030004.55664587020874023438,1456030004.55685949325561523438,4976
16,1456030004.66055893898010253906,1456030004.66077971458435058594,4880
17,1456030004.75983214378356933594,1456030004.76004719734191894531,4784
18,1456030004.85986399650573730469,1456030004.86008429527282714844,4704
19,1456030004.95593118667602539062,1456030004.95615792274475097656,4632
20,1456030005.05984473228454589844,1456030005.06006026268005371094,4560
21,1456030005.1598834991455078125,1456030005.16010117530822753906,4496
22,1456030005.25607275962829589844,1456030005.25628614425659179688,4440
23,1456030005.35693359375,1456030005.3571529388427734375,4400
24,1456030005.45995569229125976562,1456030005.46017098426818847656,4360
25,1456030005.55964159965515136719,1456030005.55984830856323242188,4328
26,1456030005.65603899955749511719,1456030005.65625905990600585938,4312
27,1456030005.76007986068725585938,1456030005.76029920578002929688,4296
28,1456030005.85654425621032714844,1456030005.8567562103271484375,4296
29,1456030005.96008610725402832031,1456030005.96031355857849121094,4296
30,1456030006.05987429618835449219,1456030006.06008315086364746094,4312
31,1456030006.16025781631469726562,1456030006.16047191619873046875,4336
32,1456030006.25664734840393066406,1456030006.25686287879943847656,4368
33,1456030006.35672426223754882812,1456030006.35693502426147460938,4400
34,1456030006.46008253097534179688,1456030006.46029734611511230469,4456
35,1456030006.55989551544189453125,1456030006.56010913848876953125,4512
36,1456030006.65643358230590820312,1456030006.65665435791015625,4568
37,1456030006.75996160507202148438,1456030006.76017498970031738281,4640
38,1456030006.85996460914611816406,1456030006.86017894744873046875,4720
39,1456030006.95966196060180664062,1456030006.9598865509033203125,4808
40,1456030007.05575799942016601562,1456030007.05597043037414550781,4896
41,1456030007.1598339080810546875,1456030007.16004920005798339844,4992
42,1456030007.25964570045471191406,1456030007.25986123085021972656,5096
43,1456030007.35981440544128417969,1456030007.36002445220947265625,5208
44,1456030007.46321225166320800781,1456030007.46342253684997558594,5320
45,1456030007.55942583084106445312,1456030007.5596408843994140625,5432
46,1456030007.65992116928100585938,1456030007.66013407707214355469,5552
47,1456030007.76045703887939453125,1456030007.76067113876342773438,5672
48,1456030007.86040425300598144531,1456030007.86061024665832519531,5792
49,1456030007.95685648918151855469,1456030007.95708751678466796875,5912
50,1456030008.05952501296997070312,1456030008.0597381591796875,6040
51,1456030008.16051626205444335938,1456030008.16072297096252441406,6168
52,1456030008.26081418991088867188,1456030008.26102900505065917969,6296
53,1456030008.35964465141296386719,1456030008.35985469818115234375,6416
54,1456030008.46067142486572265625,1456030008.46087718009948730469,6544
55,1456030008.55990552902221679688,1456030008.56011414527893066406,6664
56,1456030008.66031789779663085938,1456030008.66052532196044921875,6776
57,1456030008.76054668426513671875,1456030008.7607593536376953125,6896
58,1456030008.85665345191955566406,1456030008.85686397552490234375,7000
59,1456030008.95987033843994140625,1456030008.9600982666015625,7112
60,1456030009.05626177787780761719,1456030009.05647253990173339844,7208
61,1456030009.16089510917663574219,1456030009.16110444068908691406,7304
62,1456030009.26018071174621582031,1456030009.26039075851440429688,7400
63,1456030009.35639500617980957031,1456030009.35662078857421875,7480
64,1456030009.46331501007080078125,1456030009.46352815628051757812,7560
65,1456030009.57936763763427734375,1456030009.57965755462646484375,7624
66,1456030009.70389699935913085938,1456030009.70410799980163574219,7696
67,1456030009.84248971939086914062,1456030009.84270167350769042969,7784
68,1456030009.95601248741149902344,1456030009.95622301101684570312,7816
69,1456030010.08312511444091796875,1456030010.08334565162658691406,7856
70,1456030010.21104955673217773438,1456030010.21142506599426269531,7880
71,1456030010.3568744659423828125,1456030010.35708975791931152344,7888
72,1456030010.46726727485656738281,1456030010.46747493743896484375,7888
73,1456030010.59546804428100585938,1456030010.59568357467651367188,7872
74,1456030010.74235796928405761719,1456030010.74257302284240722656,7824
75,1456030010.85086226463317871094,1456030010.85107493400573730469,7784
76,1456030010.97743582725524902344,1456030010.97764420509338378906,7736
77,1456030011.10354137420654296875,1456030011.10374784469604492188,7664
78,1456030011.24295067787170410156,1456030011.24315786361694335938,7552
79,1456030011.3522586822509765625,1456030011.35248661041259765625,7472
80,1456030011.47439312934875488281,1456030011.47460627555847167969,7384
81,1456030011.59541964530944824219,1456030011.59562969207763671875,7272
82,1456030011.74267792701721191406,1456030011.742893218994140625,7104
83,1456030011.84233856201171875,1456030011.84255170822143554688,7000
84,1456030011.94741511344909667969,1456030011.94763016700744628906,6888
85,1456030012.06143331527709960938,1456030012.06164312362670898438,6752
86,1456030012.24561762809753417969,1456030012.24583292007446289062,6528
87,1456030012.35692763328552246094,1456030012.357143402099609375,6392
88,1456030012.39504456520080566406,1456030012.39525771141052246094,6344
89,1456030012.54207849502563476562,1456030012.54230976104736328125,6160
90,1456030012.64252638816833496094,1456030012.642734527587890625,6040
91,1456030012.74186015129089355469,1456030012.742069244384765625,5912
92,1456030012.84185576438903808594,1456030012.842067718505859375,5784
93,1456030012.96009302139282226562,1456030012.96030831336975097656,5640
94,1456030013.06304621696472167969,1456030013.06325936317443847656,5520
95,1456030013.15953421592712402344,1456030013.15974760055541992188,5408
96,1456030013.26219224929809570312,1456030013.26241183280944824219,5288
97,1456030013.35869145393371582031,1456030013.35890507698059082031,5184
98,1456030013.44588899612426757812,1456030013.44609689712524414062,5088
99,1456030013.54232954978942871094,1456030013.54255390167236328125,4992
100,1456030013.64592576026916503906,1456030013.64614248275756835938,4888
101,1456030013.74197316169738769531,1456030013.74218678474426269531,4800
102,1456030013.84208703041076660156,1456030013.84230160713195800781,4720
103,1456030013.94182491302490234375,1456030013.94204092025756835938,4640
104,1456030014.04194331169128417969,1456030014.04215764999389648438,4568
105,1456030014.14311981201171875,1456030014.14333200454711914062,4504
106,1456030014.17366671562194824219,1456030014.17387032508850097656,4488
107,1456030014.25859498977661132812,1456030014.25881457328796386719,4440
108,1456030014.34255361557006835938,1456030014.34276056289672851562,4400
109,1456030014.442768096923828125,1456030014.44299745559692382812,4360
110,1456030014.54185318946838378906,1456030014.54207515716552734375,4336
111,1456030014.64295220375061035156,1456030014.64316987991333007812,4312
112,1456030014.66176486015319824219,1456030014.66196990013122558594,4304
113,1456030014.7425365447998046875,1456030014.74274015426635742188,4296
114,1456030014.84196949005126953125,1456030014.84218263626098632812,4296
115,1456030014.94315004348754882812,1456030014.94336676597595214844,4296
116,1456030015.04435420036315917969,1456030015.04456806182861328125,4312
117,1456030015.05579400062561035156,1456030015.05704617500305175781,4312
118,1456030015.15987634658813476562,1456030015.16009354591369628906,4336
119,1456030015.26033902168273925781,1456030015.26055979728698730469,4368
120,1456030015.31663107872009277344,1456030015.31683588027954101562,4384
121,1456030015.36004638671875,1456030015.36025643348693847656,4408
122,1456030015.44221758842468261719,1456030015.44243359565734863281,4448
123,1456030015.56006741523742675781,1456030015.56028509140014648438,4512
124,1456030015.64223217964172363281,1456030015.64244318008422851562,4560
125,1456030015.65650439262390136719,1456030015.65670919418334960938,4568
126,1456030015.7616443634033203125,1456030015.7618560791015625,4648
127,1456030015.841373443603515625,1456030015.84160113334655761719,4704
128,1456030015.96409487724304199219,1456030015.964305877685546875,4808
129,1456030015.97621512413024902344,1456030015.97751498222351074219,4824
130,1456030016.05966353416442871094,1456030016.05987572669982910156,4896
131,1456030016.16059017181396484375,1456030016.16097521781921386719,4992
132,1456030016.26018166542053222656,1456030016.26039791107177734375,5096
133,1456030016.35639810562133789062,1456030016.35661220550537109375,5200
134,1456030016.45973277091979980469,1456030016.45994544029235839844,5312
135,1456030016.55964589118957519531,1456030016.55985999107360839844,5432
136,1456030016.66022849082946777344,1456030016.6604480743408203125,5552
137,1456030016.75948214530944824219,1456030016.75969004631042480469,5672
138,1456030016.85959935188293457031,1456030016.85980772972106933594,5792
139,1456030016.96033191680908203125,1456030016.96056032180786132812,5920
140,1456030017.05947589874267578125,1456030017.05968689918518066406,6040
141,1456030017.16359734535217285156,1456030017.16397738456726074219,6176
142,1456030017.25983476638793945312,1456030017.26004648208618164062,6296
143,1456030017.35598587989807128906,1456030017.35619592666625976562,6416
144,1456030017.45674753189086914062,1456030017.45695924758911132812,6536
145,1456030017.55955719947814941406,1456030017.55977368354797363281,6664
146,1456030017.66009593009948730469,1456030017.66030573844909667969,6776
147,1456030017.75621461868286132812,1456030017.75642657279968261719,6888
148,1456030017.85922980308532714844,1456030017.85943865776062011719,7000
149,1456030017.9602413177490234375,1456030017.96046471595764160156,7112
150,1456030018.05690646171569824219,1456030018.05715799331665039062,7208
151,1456030018.16070008277893066406,1456030018.16091251373291015625,7304
152,1456030018.2568607330322265625,1456030018.25707507133483886719,7392
153,1456030018.36357045173645019531,1456030018.36378335952758789062,7480
154,1456030018.45988130569458007812,1456030018.46009325981140136719,7560
155,1456030018.56047272682189941406,1456030018.56068706512451171875,7624
156,1456030018.6596508026123046875,1456030018.65985918045043945312,7688
157,1456030018.77085328102111816406,1456030018.77106523513793945312,7744
158,1456030018.88961291313171386719,1456030018.8898296356201171875,7792
159,1456030019.04151868820190429688,1456030019.04191374778747558594,7848
160,1456030019.16001486778259277344,1456030019.16022491455078125,7880
161,1456030019.26485562324523925781,1456030019.26506686210632324219,7888
162,1456030019.38523697853088378906,1456030019.38545393943786621094,7888
163,1456030019.52661299705505371094,1456030019.52682566642761230469,7880
164,1456030019.64159536361694335938,1456030019.64180469512939453125,7856
165,1456030019.84981465339660644531,1456030019.8500308990478515625,7816
166,1456030019.97723031044006347656,1456030019.97744488716125488281,7776
167,1456030020.02332997322082519531,1456030020.02354359626770019531,7712
168,1456030020.22959208488464355469,1456030020.22980213165283203125,7624
169,1456030020.35350465774536132812,1456030020.35374093055725097656,7552
170,1456030020.47689604759216308594,1456030020.47710943222045898438,7456
171,1456030020.59898686408996582031,1456030020.59919881820678710938,7352
172,1456030020.63968420028686523438,1456030020.63990902900695800781,7232
173,1456030020.83815026283264160156,1456030020.838359832763671875,7104
174,1456030020.9549579620361328125,1456030020.95517230033874511719,6992
175,1456030020.99052000045776367188,1456030020.99072861671447753906,6856
176,1456030021.14238834381103515625,1456030021.14260435104370117188,6656
177,1456030021.24515080451965332031,1456030021.24535679817199707031,6528
178,1456030021.35810589790344238281,1456030021.35831284523010253906,6392
179,1456030021.43043184280395507812,1456030021.43065929412841796875,6312
180,1456030021.54165029525756835938,1456030021.54186773300170898438,6160
181,1456030021.65657448768615722656,1456030021.6567840576171875,6016
182,1456030021.75996494293212890625,1456030021.76017689704895019531,5888
183,1456030021.86059355735778808594,1456030021.8608036041259765625,5768
184,1456030022.04162693023681640625,1456030022.04184198379516601562,5544
185,1456030022.1424312591552734375,1456030022.14264583587646484375,5424
186,1456030022.24268507957458496094,1456030022.24289727210998535156,5312
187,1456030022.261142730712890625,1456030022.261356353759765625,5288
188,1456030022.35815668106079101562,1456030022.35836696624755859375,5184
189,1456030022.46031951904296875,1456030022.46054697036743164062,5072
190,1456030022.54290795326232910156,1456030022.54311919212341308594,4992
191,1456030022.64295077323913574219,1456030022.6431789398193359375,4896
192,1456030022.74267745018005371094,1456030022.74289202690124511719,4800
193,1456030022.84202527999877929688,1456030022.8422393798828125,4720
194,1456030022.9452075958251953125,1456030022.9454250335693359375,4640
195,1456030023.04176092147827148438,1456030023.041973114013671875,4568
196,1456030023.141857147216796875,1456030023.14206528663635253906,4504
197,1456030023.15968942642211914062,1456030023.16009593009948730469,4496
198,1456030023.25933289527893066406,1456030023.25970959663391113281,4440
199,1456030023.34173583984375,1456030023.34195852279663085938,4400
200,1456030023.44269013404846191406,1456030023.44290328025817871094,4360
201,1456030023.54254627227783203125,1456030023.54275798797607421875,4336
202,1456030023.64175915718078613281,1456030023.641971588134765625,4312
203,1456030023.66108369827270507812,1456030023.66147518157958984375,4304
204,1456030023.74221181869506835938,1456030023.74242234230041503906,4296
205,1456030023.84554934501647949219,1456030023.84575867652893066406,4296
206,1456030023.94230508804321289062,1456030023.94255614280700683594,4296
207,1456030023.95912098884582519531,1456030023.95932769775390625,4296
208,1456030024.04200291633605957031,1456030024.04221391677856445312,4312
209,1456030024.15983486175537109375,1456030024.16006517410278320312,4336
210,1456030024.24152064323425292969,1456030024.24172830581665039062,4360
211,1456030024.25928139686584472656,1456030024.25948810577392578125,4368
212,1456030024.35997867584228515625,1456030024.3601932525634765625,4408
213,1456030024.44170665740966796875,1456030024.44191956520080566406,4440
214,1456030024.5604400634765625,1456030024.56064915657043457031,4512
215,1456030024.57238626480102539062,1456030024.57362079620361328125,4520
216,1456030024.66025781631469726562,1456030024.66047620773315429688,4576
217,1456030024.75631165504455566406,1456030024.75652384757995605469,4640
218,1456030024.86031627655029296875,1456030024.86053371429443359375,4720
219,1456030024.95995593070983886719,1456030024.96017718315124511719,4808
220,1456030025.06008934974670410156,1456030025.0603008270263671875,4896
221,1456030025.15978503227233886719,1456030025.16000032424926757812,4992
222,1456030025.26026177406311035156,1456030025.26047444343566894531,5096
223,1456030025.36382246017456054688,1456030025.36403679847717285156,5208
224,1456030025.46037936210632324219,1456030025.46062636375427246094,5312
225,1456030025.55632233619689941406,1456030025.55653810501098632812,5424
226,1456030025.65971279144287109375,1456030025.65992760658264160156,5552
227,1456030025.75569677352905273438,1456030025.75591111183166503906,5664
228,1456030025.85642409324645996094,1456030025.85663676261901855469,5792
229,1456030025.95955538749694824219,1456030025.95978116989135742188,5920
230,1456030026.0601100921630859375,1456030026.06032061576843261719,6040
231,1456030026.15663385391235351562,1456030026.15685105323791503906,6168
232,1456030026.2591876983642578125,1456030026.25939035415649414062,6296
233,1456030026.36050581932067871094,1456030026.36071681976318359375,6416
234,1456030026.45638537406921386719,1456030026.45659661293029785156,6536
235,1456030026.55952906608581542969,1456030026.559741973876953125,6664
236,1456030026.65981292724609375,1456030026.66002488136291503906,6776
237,1456030026.76024270057678222656,1456030026.76045393943786621094,6896
238,1456030026.86030364036560058594,1456030026.86051702499389648438,7008
239,1456030026.96024203300476074219,1456030026.96046566963195800781,7112
240,1456030027.05994820594787597656,1456030027.06016254425048828125,7208
241,1456030027.15624356269836425781,1456030027.15645432472229003906,7304
242,1456030027.25646257400512695312,1456030027.25667572021484375,7392
243,1456030027.36020064353942871094,1456030027.36041331291198730469,7480
244,1456030027.46024870872497558594,1456030027.46046137809753417969,7560
245,1456030027.55660676956176757812,1456030027.55681681632995605469,7624
246,1456030027.66110134124755859375,1456030027.66131353378295898438,7688
247,1456030027.77050042152404785156,1456030027.77071285247802734375,7744
248,1456030027.889118194580078125,1456030027.88933467864990234375,7792
249,1456030028.04284524917602539062,1456030028.04307818412780761719,7848
250,1456030028.15996623039245605469,1456030028.16017675399780273438,7880
251,1456030028.26437091827392578125,1456030028.26458859443664550781,7888
252,1456030028.38486599922180175781,1456030028.38524627685546875,7888
253,1456030028.53692746162414550781,1456030028.53714251518249511719,7880
254,1456030028.64276671409606933594,1456030028.64297389984130859375,7856
255,1456030028.85206294059753417969,1456030028.85228824615478515625,7816
256,1456030028.97933602333068847656,1456030028.97955155372619628906,7776
257,1456030029.02289152145385742188,1456030029.02310991287231445312,7712
258,1456030029.23152804374694824219,1456030029.23174405097961425781,7624
259,1456030029.35579848289489746094,1456030029.35602426528930664062,7552
260,1456030029.47913885116577148438,1456030029.47934961318969726562,7456
261,1456030029.601078033447265625,1456030029.60128760337829589844,7352
262,1456030029.63905024528503417969,1456030029.63926482200622558594,7232
263,1456030029.84019947052001953125,1456030029.84041070938110351562,7104
264,1456030029.95713329315185546875,1456030029.95735025405883789062,6984
265,1456030029.99024486541748046875,1456030029.99045228958129882812,6856
266,1456030030.14289879798889160156,1456030030.14311242103576660156,6656
267,1456030030.24590158462524414062,1456030030.2461147308349609375,6528
268,1456030030.35727334022521972656,1456030030.35748744010925292969,6392
269,1456030030.43023157119750976562,1456030030.43046045303344726562,6312
270,1456030030.542537689208984375,1456030030.5427494049072265625,6160
271,1456030030.65758609771728515625,1456030030.65790438652038574219,6016
272,1456030030.76021051406860351562,1456030030.76042294502258300781,5888
273,1456030030.859798431396484375,1456030030.86000895500183105469,5768
274,1456030031.04579043388366699219,1456030031.04600453376770019531,5544
275,1456030031.14191174507141113281,1456030031.14212536811828613281,5424
276,1456030031.24536538124084472656,1456030031.24558091163635253906,5312
