id, time (s), size (bits)
0,1456030003.16871023178100585938,1456030003.16906023025512695312,6624
1,1456030003.26333856582641601562,1456030003.26355886459350585938,6512
2,1456030003.35945010185241699219,1456030003.35966134071350097656,6392
3,1456030003.45939135551452636719,1456030003.45959830284118652344,6272
4,1456030003.56291985511779785156,1456030003.56312990188598632812,6144
5,1456030003.65912079811096191406,1456030003.6593341827392578125,6016
6,1456030003.75962376594543457031,1456030003.75983715057373046875,5888
7,1456030003.85955381393432617188,1456030003.85976910591125488281,5768
8,1456030003.96026110649108886719,1456030003.96046924591064453125,5640
9,1456030004.05654191970825195312,1456030004.05676913261413574219,5528
10,1456030004.15970873832702636719,1456030004.15991950035095214844,5408
11,1456030004.25623297691345214844,1456030004.25644946098327636719,5296
12,1456030004.35649538040161132812,1456030004.35671496391296386719,5184
13,1456030004.46037054061889648438,1456030004.46058344841003417969,5072
14,1456030004.56070685386657714844,1456030004.56092047691345214844,4976
15,1456030004.65641260147094726562,1456030004.65662431716918945312,4880
16,1456030004.7604522705078125,1456030004.76066613197326660156,4792
17,1456030004.85968542098999023438,1456030004.85990214347839355469,4704
18,1456030004.95961856842041015625,1456030004.95982766151428222656,4632
19,1456030005.05605053901672363281,1456030005.05627393722534179688,4560
20,1456030005.15947675704956054688,1456030005.15969085693359375,4496
21,1456030005.25959300994873046875,1456030005.25981259346008300781,4440
22,1456030005.35590147972106933594,1456030005.35611510276794433594,4400
23,1456030005.45679736137390136719,1456030005.45700979232788085938,4360
24,1456030005.55989956855773925781,1456030005.5601139068603515625,4328
25,1456030005.65945291519165039062,1456030005.65966844558715820312,4304
26,1456030005.75592327117919921875,1456030005.75614118576049804688,4296
27,1456030005.85985159873962402344,1456030005.860065460205078125,4296
28,1456030005.9564380645751953125,1456030005.95665669441223144531,4296
29,1456030006.06003975868225097656,1456030006.06026482582092285156,4312
30,1456030006.15957498550415039062,1456030006.1597900390625,4336
31,1456030006.26031088829040527344,1456030006.26053118705749511719,4368
32,1456030006.35653805732727050781,1456030006.35675263404846191406,4400
33,1456030006.45648741722106933594,1456030006.45670223236083984375,4448
34,1456030006.56017327308654785156,1456030006.56038403511047363281,4512
35,1456030006.65993237495422363281,1456030006.66014075279235839844,4576
36,1456030006.75627541542053222656,1456030006.75649261474609375,4640
37,1456030006.85968327522277832031,1456030006.85989522933959960938,4720
38,1456030006.95973753929138183594,1456030006.95995235443115234375,4808
39,1456030007.059642791748046875,1456030007.05986690521240234375,4896
40,1456030007.15574860572814941406,1456030007.15596556663513183594,4992
41,1456030007.2596187591552734375,1456030007.25985956192016601562,5096
42,1456030007.35930514335632324219,1456030007.35951972007751464844,5200
43,1456030007.4598979949951171875,1456030007.46010994911193847656,5312
44,1456030007.56299376487731933594,1456030007.56319975852966308594,5432
45,1456030007.6592426300048828125,1456030007.65946054458618164062,5544
46,1456030007.75957965850830078125,1456030007.75979089736938476562,5672
47,1456030007.86014413833618164062,1456030007.86035823822021484375,5792
48,1456030007.96050190925598144531,1456030007.96071219444274902344,5920
49,1456030008.05683374404907226562,1456030008.05706477165222167969,6040
50,1456030008.15935301780700683594,1456030008.15957045555114746094,6168
51,1456030008.25989866256713867188,1456030008.26010417938232421875,6296
52,1456030008.36326932907104492188,1456030008.363491058349609375,6416
53,1456030008.45965981483459472656,1456030008.45986986160278320312,6536
54,1456030008.56040215492248535156,1456030008.56061625480651855469,6664
55,1456030008.65981626510620117188,1456030008.66002726554870605469,6776
56,1456030008.76025938987731933594,1456030008.76064920425415039062,6896
57,1456030008.86030888557434082031,1456030008.86070728302001953125,7000
58,1456030008.95671224594116210938,1456030008.95692229270935058594,7104
59,1456030009.05972695350646972656,1456030009.05998516082763671875,7208
60,1456030009.15613102912902832031,1456030009.15634393692016601562,7304
61,1456030009.26101231575012207031,1456030009.26146793365478515625,7400
62,1456030009.36004567146301269531,1456030009.36025667190551757812,7480
63,1456030009.45663094520568847656,1456030009.45685911178588867188,7552
64,1456030009.58290433883666992188,1456030009.58311557769775390625,7624
65,1456030009.70447015762329101562,1456030009.70468235015869140625,7696
66,1456030009.82995176315307617188,1456030009.83016610145568847656,7760
67,1456030009.95647931098937988281,1456030009.95669221878051757812,7816
68,1456030010.08353924751281738281,1456030010.08375024795532226562,7856
69,1456030010.21130275726318359375,1456030010.21163654327392578125,7880
70,1456030010.33953261375427246094,1456030010.33975076675415039062,7888
71,1456030010.46787977218627929688,1456030010.46809458732604980469,7888
72,1456030010.59594798088073730469,1456030010.596160888671875,7872
73,1456030010.72391057014465332031,1456030010.7241268157958984375,7840
74,1456030010.85148358345031738281,1456030010.85168528556823730469,7784
75,1456030010.97827744483947753906,1456030010.97848868370056152344,7736
76,1456030011.10423636436462402344,1456030011.10444903373718261719,7664
77,1456030011.22939729690551757812,1456030011.22961258888244628906,7584
78,1456030011.43812155723571777344,1456030011.43833231925964355469,7480
79,1456030011.56051874160766601562,1456030011.56075453758239746094,7384
80,1456030011.6815166473388671875,1456030011.68172025680541992188,7272
81,1456030011.71588468551635742188,1456030011.71609330177307128906,7152
82,1456030011.84272670745849609375,1456030011.84294056892395019531,7000
83,1456030012.03344297409057617188,1456030012.03366017341613769531,6888
84,1456030012.14752411842346191406,1456030012.147747039794921875,6768
85,1456030012.1754856109619140625,1456030012.175693511962890625,6632
86,1456030012.34555864334106445312,1456030012.34576845169067382812,6408
87,1456030012.4567852020263671875,1456030012.45700478553771972656,6272
88,1456030012.49822115898132324219,1456030012.49843072891235351562,6224
89,1456030012.64205002784729003906,1456030012.64228129386901855469,6040
90,1456030012.74239349365234375,1456030012.74260973930358886719,5912
91,1456030012.8418521881103515625,1456030012.84206414222717285156,5792
92,1456030012.94158887863159179688,1456030012.94179248809814453125,5664
93,1456030013.05967831611633300781,1456030013.05989623069763183594,5520
94,1456030013.16314339637756347656,1456030013.1633625030517578125,5400
95,1456030013.25941133499145507812,1456030013.25962567329406738281,5296
96,1456030013.36230254173278808594,1456030013.36252713203430175781,5176
97,1456030013.4584808349609375,1456030013.45869922637939453125,5080
98,1456030013.54584598541259765625,1456030013.54606366157531738281,4984
99,1456030013.6421833038330078125,1456030013.64241290092468261719,4896
100,1456030013.74567770957946777344,1456030013.74589180946350097656,4800
101,1456030013.84214234352111816406,1456030013.84235334396362304688,4720
102,1456030013.94189596176147460938,1456030013.94210529327392578125,4640
103,1456030014.04174351692199707031,1456030014.0419597625732421875,4568
104,1456030014.14158082008361816406,1456030014.14178514480590820312,4504
105,1456030014.24307322502136230469,1456030014.24329042434692382812,4448
106,1456030014.27418208122253417969,1456030014.27439403533935546875,4432
107,1456030014.35874438285827636719,1456030014.35895514488220214844,4400
108,1456030014.44238734245300292969,1456030014.44259572029113769531,4368
109,1456030014.54274821281433105469,1456030014.54297304153442382812,4336
110,1456030014.64149951934814453125,1456030014.64170336723327636719,4312
111,1456030014.74291872978210449219,1456030014.74313044548034667969,4296
112,1456030014.76109600067138671875,1456030014.7612934112548828125,4296
113,1456030014.84259819984436035156,1456030014.84281086921691894531,4296
114,1456030014.9417400360107421875,1456030014.94195604324340820312,4296
115,1456030015.04318690299987792969,1456030015.04339694976806640625,4312
116,1456030015.14434838294982910156,1456030015.14455962181091308594,4328
117,1456030015.15602707862854003906,1456030015.15728259086608886719,4336
118,1456030015.25958299636840820312,1456030015.25979733467102050781,4368
119,1456030015.36032176017761230469,1456030015.360546112060546875,4408
120,1456030015.41632795333862304688,1456030015.41653871536254882812,4432
121,1456030015.45969462394714355469,1456030015.45990872383117675781,4456
122,1456030015.54189968109130859375,1456030015.54210758209228515625,4496
123,1456030015.659748077392578125,1456030015.65995645523071289062,4576
124,1456030015.74234271049499511719,1456030015.74255847930908203125,4632
125,1456030015.75631999969482421875,1456030015.75652432441711425781,4640
126,1456030015.86175966262817382812,1456030015.86196374893188476562,4720
127,1456030015.94111657142639160156,1456030015.94135046005249023438,4792
128,1456030016.06504869461059570312,1456030016.06526350975036621094,4904
129,1456030016.0773468017578125,1456030016.07866406440734863281,4912
130,1456030016.15926957130432128906,1456030016.15947294235229492188,4992
131,1456030016.26035189628601074219,1456030016.26056575775146484375,5096
132,1456030016.36023736000061035156,1456030016.36045002937316894531,5200
133,1456030016.45633983612060546875,1456030016.45655584335327148438,5312
134,1456030016.55949044227600097656,1456030016.55970168113708496094,5432
135,1456030016.65931105613708496094,1456030016.6595287322998046875,5544
136,1456030016.76291227340698242188,1456030016.76312708854675292969,5672
137,1456030016.85943436622619628906,1456030016.85964703559875488281,5792
138,1456030016.95938467979431152344,1456030016.95959186553955078125,5912
139,1456030017.0599498748779296875,1456030017.06017160415649414062,6040
140,1456030017.15925192832946777344,1456030017.15946316719055175781,6168
141,1456030017.26336979866027832031,1456030017.263584136962890625,6296
142,1456030017.35996317863464355469,1456030017.36016893386840820312,6416
143,1456030017.45576739311218261719,1456030017.45597815513610839844,6536
144,1456030017.55662417411804199219,1456030017.55683422088623046875,6656
145,1456030017.65925765037536621094,1456030017.65946936607360839844,6776
146,1456030017.75986933708190917969,1456030017.76007699966430664062,6896
147,1456030017.85642194747924804688,1456030017.8566379547119140625,7000
148,1456030017.959171295166015625,1456030017.95938801765441894531,7112
149,1456030018.06073975563049316406,1456030018.06096696853637695312,7208
150,1456030018.15708160400390625,1456030018.15729546546936035156,7304
151,1456030018.26047587394714355469,1456030018.26069211959838867188,7400
152,1456030018.35716414451599121094,1456030018.35737514495849609375,7480
153,1456030018.46340107917785644531,1456030018.46361184120178222656,7560
154,1456030018.55971980094909667969,1456030018.5599346160888671875,7624
155,1456030018.66017031669616699219,1456030018.66038441658020019531,7688
156,1456030018.76718807220458984375,1456030018.76739621162414550781,7744
157,1456030018.89318776130676269531,1456030018.89339685440063476562,7792
158,1456030019.01263761520385742188,1456030019.01285290718078613281,7832
159,1456030019.14155721664428710938,1456030019.14178299903869628906,7872
160,1456030019.26042628288269042969,1456030019.26063609123229980469,7888
161,1456030019.38861632347106933594,1456030019.38883042335510253906,7888
162,1456030019.5094280242919921875,1456030019.50963807106018066406,7880
163,1456030019.63750338554382324219,1456030019.6377201080322265625,7856
164,1456030019.7653102874755859375,1456030019.765522003173828125,7824
165,1456030019.94949984550476074219,1456030019.94971609115600585938,7736
166,1456030020.07698321342468261719,1456030020.07720041275024414062,7664
167,1456030020.14372658729553222656,1456030020.14394354820251464844,7632
168,1456030020.32949733734130859375,1456030020.32971072196960449219,7488
169,1456030020.45330929756164550781,1456030020.45354223251342773438,7384
170,1456030020.57666635513305664062,1456030020.57687807083129882812,7272
171,1456030020.69902682304382324219,1456030020.69923925399780273438,7152
172,1456030020.74906682968139648438,1456030020.74928331375122070312,7112
173,1456030020.93793797492980957031,1456030020.93815279006958007812,6896
174,1456030021.05462312698364257812,1456030021.0548381805419921875,6760
175,1456030021.09215140342712402344,1456030021.09235620498657226562,6720
176,1456030021.24260473251342773438,1456030021.24282097816467285156,6536
177,1456030021.34489107131958007812,1456030021.3451061248779296875,6408
178,1456030021.45781373977661132812,1456030021.45802545547485351562,6272
179,1456030021.53039455413818359375,1456030021.53062009811401367188,6176
180,1456030021.64153909683227539062,1456030021.6417446136474609375,6040
181,1456030021.75648069381713867188,1456030021.75679540634155273438,5896
182,1456030021.86014246940612792969,1456030021.86035323143005371094,5768
183,1456030021.96037220954895019531,1456030021.96058917045593261719,5640
184,1456030022.14159560203552246094,1456030022.14184141159057617188,5424
185,1456030022.24254369735717773438,1456030022.24276018142700195312,5312
186,1456030022.34257435798645019531,1456030022.34278917312622070312,5200
187,1456030022.36121225357055664062,1456030022.36155438423156738281,5176
188,1456030022.45787191390991210938,1456030022.4580841064453125,5080
189,1456030022.55997943878173828125,1456030022.56020021438598632812,4976
190,1456030022.643096923828125,1456030022.64331579208374023438,4896
191,1456030022.74295067787170410156,1456030022.74317789077758789062,4800
192,1456030022.84241843223571777344,1456030022.84263181686401367188,4720
193,1456030022.94180274009704589844,1456030022.94201898574829101562,4640
194,1456030023.04516768455505371094,1456030023.04538297653198242188,4568
195,1456030023.14204812049865722656,1456030023.14225649833679199219,4504
196,1456030023.24185419082641601562,1456030023.24206137657165527344,4448
197,1456030023.25979852676391601562,1456030023.26001453399658203125,4440
198,1456030023.35906457901000976562,1456030023.35928130149841308594,4400
199,1456030023.44160246849060058594,1456030023.4418239593505859375,4368
200,1456030023.54269814491271972656,1456030023.54291200637817382812,4336
201,1456030023.64269399642944335938,1456030023.6429042816162109375,4312
202,1456030023.74180555343627929688,1456030023.74201464653015136719,4296
203,1456030023.76099085807800292969,1456030023.76120018959045410156,4296
204,1456030023.84208440780639648438,1456030023.84229707717895507812,4296
205,1456030023.94566273689270019531,1456030023.94587588310241699219,4296
206,1456030024.04226040840148925781,1456030024.04247641563415527344,4312
207,1456030024.05851793289184570312,1456030024.05871343612670898438,4312
208,1456030024.14198994636535644531,1456030024.14219689369201660156,4328
209,1456030024.25972127914428710938,1456030024.259952545166015625,4368
210,1456030024.34115910530090332031,1456030024.34145522117614746094,4400
211,1456030024.35864949226379394531,1456030024.35885405540466308594,4408
212,1456030024.45965862274169921875,1456030024.45987010002136230469,4456
213,1456030024.54184436798095703125,1456030024.54205751419067382812,4496
214,1456030024.66366529464721679688,1456030024.66387915611267089844,4576
215,1456030024.67533946037292480469,1456030024.67669677734375,4584
216,1456030024.76001715660095214844,1456030024.76021981239318847656,4640
217,1456030024.85609364509582519531,1456030024.85630345344543457031,4720
218,1456030024.96012020111083984375,1456030024.96033263206481933594,4808
219,1456030025.05969929695129394531,1456030025.05991840362548828125,4896
220,1456030025.15977454185485839844,1456030025.1599903106689453125,4992
221,1456030025.25969338417053222656,1456030025.2599048614501953125,5096
222,1456030025.36005067825317382812,1456030025.36026430130004882812,5200
223,1456030025.46383190155029296875,1456030025.46405053138732910156,5320
224,1456030025.5601749420166015625,1456030025.56038832664489746094,5432
225,1456030025.65614461898803710938,1456030025.65635967254638671875,5544
226,1456030025.75975537300109863281,1456030025.75996828079223632812,5672
227,1456030025.85545325279235839844,1456030025.85566878318786621094,5784
228,1456030025.95624208450317382812,1456030025.95645666122436523438,5912
229,1456030026.05950760841369628906,1456030026.05973649024963378906,6040
230,1456030026.15994906425476074219,1456030026.16016244888305664062,6168
231,1456030026.25698304176330566406,1456030026.25719165802001953125,6288
232,1456030026.35884404182434082031,1456030026.35905718803405761719,6416
233,1456030026.4603519439697265625,1456030026.46056818962097167969,6544
234,1456030026.55623912811279296875,1456030026.55645298957824707031,6656
235,1456030026.65934872627258300781,1456030026.65955567359924316406,6776
236,1456030026.75981307029724121094,1456030026.76002740859985351562,6896
237,1456030026.86000490188598632812,1456030026.86021375656127929688,7000
238,1456030026.96008372306823730469,1456030026.96029901504516601562,7112
239,1456030027.06008172035217285156,1456030027.06030225753784179688,7208
240,1456030027.15972733497619628906,1456030027.15994286537170410156,7304
241,1456030027.25648403167724609375,1456030027.25673699378967285156,7392
242,1456030027.35624766349792480469,1456030027.35646033287048339844,7480
243,1456030027.46004247665405273438,1456030027.46025705337524414062,7552
244,1456030027.55999541282653808594,1456030027.56020712852478027344,7624
245,1456030027.65658140182495117188,1456030027.656795501708984375,7688
246,1456030027.7670459747314453125,1456030027.76725935935974121094,7744
247,1456030027.89334893226623535156,1456030027.89356517791748046875,7792
248,1456030028.012599945068359375,1456030028.01281285285949707031,7832
249,1456030028.14314723014831542969,1456030028.14338374137878417969,7872
250,1456030028.26033139228820800781,1456030028.26054215431213378906,7888
251,1456030028.3887729644775390625,1456030028.38899135589599609375,7888
252,1456030028.50929880142211914062,1456030028.50950956344604492188,7888
253,1456030028.63754796981811523438,1456030028.63776493072509765625,7856
254,1456030028.76532721519470214844,1456030028.76553678512573242188,7824
255,1456030028.95214796066284179688,1456030028.95237445831298828125,7736
256,1456030029.08029794692993164062,1456030029.08051061630249023438,7664
257,1456030029.14366364479064941406,1456030029.14386963844299316406,7640
258,1456030029.33182239532470703125,1456030029.33205747604370117188,7488
259,1456030029.45565629005432128906,1456030029.45589709281921386719,7384
260,1456030029.57908892631530761719,1456030029.57930660247802734375,7272
261,1456030029.70094418525695800781,1456030029.70116257667541503906,7152
262,1456030029.74901819229125976562,1456030029.74922537803649902344,7112
263,1456030029.94014668464660644531,1456030029.94036626815795898438,6896
264,1456030030.05701851844787597656,1456030030.05722951889038085938,6760
265,1456030030.0926609039306640625,1456030030.09287428855895996094,6720
266,1456030030.24272704124450683594,1456030030.24293971061706542969,6536
267,1456030030.34607815742492675781,1456030030.34629297256469726562,6408
268,1456030030.45721435546875,1456030030.45743322372436523438,6272
269,1456030030.530364990234375,1456030030.53058791160583496094,6176
270,1456030030.64263510704040527344,1456030030.642852783203125,6040
271,1456030030.75752973556518554688,1456030030.75774407386779785156,5896
272,1456030030.85995125770568847656,1456030030.86016297340393066406,5768
273,1456030030.95959687232971191406,1456030030.95980715751647949219,5648
274,1456030031.14601922035217285156,1456030031.14623427391052246094,5424
275,1456030031.24178361892700195312,1456030031.24199175834655761719,5312
