id, time (s), size (bits)
0,1456011906.62918257713317871094,1456011906.62942981719970703125,4296
1,1456011906.73088312149047851562,1456011906.7311000823974609375,4296
2,1456011906.83398652076721191406,1456011906.83420896530151367188,4296
3,1456011906.93628931045532226562,1456011906.93651318550109863281,4304
4,1456011907.03776669502258300781,1456011907.0379886627197265625,4328
5,1456011907.20261383056640625,1456011907.20284223556518554688,4376
6,1456011907.30451893806457519531,1456011907.30474042892456054688,4416
7,1456011907.40675282478332519531,1456011907.40697741508483886719,4472
8,1456011907.50839877128601074219,1456011907.50861954689025878906,4528
9,1456011907.61045026779174804688,1456011907.6106891632080078125,4600
10,1456011907.71247100830078125,1456011907.71269726753234863281,4672
11,1456011907.81514286994934082031,1456011907.81536507606506347656,4760
12,1456011907.91653037071228027344,1456011907.91675567626953125,4848
13,1456011908.0178203582763671875,1456011908.01804423332214355469,4944
14,1456011908.11949372291564941406,1456011908.11971783638000488281,5040
15,1456011908.22178363800048828125,1456011908.22201204299926757812,5152
16,1456011908.3257999420166015625,1456011908.32602739334106445312,5264
17,1456011908.42750310897827148438,1456011908.42773318290710449219,5376
18,1456011908.52893877029418945312,1456011908.52916264533996582031,5496
19,1456011908.63039255142211914062,1456011908.63063716888427734375,5616
20,1456011908.73303484916687011719,1456011908.73325586318969726562,5744
21,1456011908.83492422103881835938,1456011908.83515071868896484375,5872
22,1456011908.93746542930603027344,1456011908.93768477439880371094,6000
23,1456011909.04024958610534667969,1456011909.04046916961669921875,6128
24,1456011909.14147591590881347656,1456011909.14169597625732421875,6256
25,1456011909.24438428878784179688,1456011909.24459791183471679688,6384
26,1456011909.34648084640502929688,1456011909.34670114517211914062,6512
27,1456011909.44918203353881835938,1456011909.44939899444580078125,6632
28,1456011909.55048227310180664062,1456011909.55069684982299804688,6752
29,1456011909.65215349197387695312,1456011909.65238618850708007812,6872
30,1456011909.75437712669372558594,1456011909.75459885597229003906,6984
31,1456011909.85801029205322265625,1456011909.8582324981689453125,7096
32,1456011909.96175312995910644531,1456011909.96197271347045898438,7200
33,1456011910.07177972793579101562,1456011910.07200217247009277344,7304
34,1456011910.19147181510925292969,1456011910.19169449806213378906,7408
35,1456011910.31247758865356445312,1456011910.31269812583923339844,7512
36,1456011910.43499875068664550781,1456011910.43522024154663085938,7600
37,1456011910.55861735343933105469,1456011910.55900621414184570312,7680
38,1456011910.68275785446166992188,1456011910.682979583740234375,7744
39,1456011910.80804681777954101562,1456011910.8082790374755859375,7800
40,1456011910.93392491340637207031,1456011910.93414187431335449219,7848
41,1456011911.060062408447265625,1456011911.06028914451599121094,7872
42,1456011911.18643164634704589844,1456011911.18665790557861328125,7888
43,1456011911.31297826766967773438,1456011911.31320333480834960938,7888
44,1456011911.439208984375,1456011911.43942904472351074219,7880
45,1456011911.56539988517761230469,1456011911.56561946868896484375,7856
46,1456011911.69064068794250488281,1456011911.69085693359375,7816
47,1456011911.81542038917541503906,1456011911.81563735008239746094,7760
48,1456011911.93895959854125976562,1456011911.93918085098266601562,7696
49,1456011912.06159186363220214844,1456011912.06183147430419921875,7624
50,1456011912.18305563926696777344,1456011912.18327879905700683594,7536
51,1456011912.3031520843505859375,1456011912.30346322059631347656,7440
52,1456011912.42190885543823242188,1456011912.42213487625122070312,7336
53,1456011912.53889894485473632812,1456011912.53912305831909179688,7224
54,1456011912.65450906753540039062,1456011912.65473484992980957031,7112
55,1456011912.76857447624206542969,1456011912.76899290084838867188,6984
56,1456011912.88024473190307617188,1456011912.88047170639038085938,6864
57,1456011912.99031186103820800781,1456011912.99054050445556640625,6736
58,1456011913.09875440597534179688,1456011913.098979949951171875,6608
59,1456011913.20529890060424804688,1456011913.20553755760192871094,6472
60,1456011913.3100070953369140625,1456011913.31022763252258300781,6344
61,1456011913.41292810440063476562,1456011913.4131526947021484375,6216
62,1456011913.514987945556640625,1456011913.51520991325378417969,6088
63,1456011913.61731743812561035156,1456011913.61755323410034179688,5960
64,1456011913.72231793403625488281,1456011913.72254633903503417969,5832
65,1456011913.82391357421875,1456011913.8241405487060546875,5704
66,1456011913.92509722709655761719,1456011913.92531132698059082031,5576
67,1456011914.02624964714050292969,1456011914.02647519111633300781,5456
68,1456011914.12790822982788085938,1456011914.12812328338623046875,5344
69,1456011914.22949004173278808594,1456011914.22972559928894042969,5224
70,1456011914.33235311508178710938,1456011914.33257722854614257812,5120
71,1456011914.43410134315490722656,1456011914.43433260917663574219,5008
72,1456011914.53574991226196289062,1456011914.53597044944763183594,4912
73,1456011914.63800263404846191406,1456011914.63822197914123535156,4816
74,1456011914.74003815650939941406,1456011914.74026083946228027344,4728
75,1456011914.84185028076171875,1456011914.84207606315612792969,4648
76,1456011914.94309115409851074219,1456011914.94340443611145019531,4576
77,1456011915.04514932632446289062,1456011915.04537272453308105469,4512
78,1456011915.1464786529541015625,1456011915.14669322967529296875,4456
79,1456011915.2495098114013671875,1456011915.24974918365478515625,4408
80,1456011915.35180354118347167969,1456011915.35203099250793457031,4368
81,1456011915.4536876678466796875,1456011915.45390343666076660156,4336
82,1456011915.55507040023803710938,1456011915.55528998374938964844,4312
83,1456011915.65704607963562011719,1456011915.65726947784423828125,4296
84,1456011915.75959658622741699219,1456011915.7598209381103515625,4296
85,1456011915.86236739158630371094,1456011915.86259794235229492188,4296
86,1456011915.96413588523864746094,1456011915.96436262130737304688,4312
87,1456011916.06577420234680175781,1456011916.06600260734558105469,4336
88,1456011916.16829705238342285156,1456011916.16852021217346191406,4368
89,1456011916.27123236656188964844,1456011916.27147531509399414062,4408
90,1456011916.37374520301818847656,1456011916.37397003173828125,4456
91,1456011916.475399017333984375,1456011916.47562456130981445312,4512
92,1456011916.57711052894592285156,1456011916.57733058929443359375,4576
93,1456011916.67921924591064453125,1456011916.67944121360778808594,4648
94,1456011916.78128218650817871094,1456011916.78168988227844238281,4728
95,1456011916.88383030891418457031,1456011916.88405680656433105469,4816
96,1456011916.98596954345703125,1456011916.98619556427001953125,4912
97,1456011917.08712363243103027344,1456011917.08733725547790527344,5008
98,1456011917.18733835220336914062,1456011917.18756079673767089844,5112
99,1456011917.28837633132934570312,1456011917.28859972953796386719,5224
100,1456011917.38973951339721679688,1456011917.38995265960693359375,5336
101,1456011917.4901981353759765625,1456011917.49041318893432617188,5448
102,1456011917.59045195579528808594,1456011917.59066939353942871094,5568
103,1456011917.69187974929809570312,1456011917.69209837913513183594,5696
104,1456011917.79461026191711425781,1456011917.79482746124267578125,5824
105,1456011917.89502477645874023438,1456011917.89523839950561523438,5944
106,1456011917.99578070640563964844,1456011917.99599862098693847656,6072
107,1456011918.09688425064086914062,1456011918.0970973968505859375,6200
108,1456011918.19820690155029296875,1456011918.19842028617858886719,6328
109,1456011918.30115056037902832031,1456011918.30137801170349121094,6456
110,1456011918.40183734893798828125,1456011918.40205287933349609375,6576
111,1456011918.50224614143371582031,1456011918.50246095657348632812,6696
112,1456011918.60263729095458984375,1456011918.60284948348999023438,6816
113,1456011918.70413517951965332031,1456011918.70435738563537597656,6928
114,1456011918.80686736106872558594,1456011918.80707788467407226562,7040
115,1456011918.90803575515747070312,1456011918.908245086669921875,7144
116,1456011919.01701188087463378906,1456011919.01722192764282226562,7256
117,1456011919.13543558120727539062,1456011919.13564562797546386719,7368
118,1456011919.25594949722290039062,1456011919.25620031356811523438,7464
119,1456011919.37755990028381347656,1456011919.377986907958984375,7560
120,1456011919.50069952011108398438,1456011919.50091290473937988281,7648
121,1456011919.62474942207336425781,1456011919.62496733665466308594,7720
122,1456011919.74942278861999511719,1456011919.74963259696960449219,7776
123,1456011919.87459683418273925781,1456011919.87480711936950683594,7824
124,1456011920.00088524818420410156,1456011920.00109791755676269531,7864
125,1456011920.12704753875732421875,1456011920.12725901603698730469,7888
126,1456011920.25367712974548339844,1456011920.25389194488525390625,7888
127,1456011920.37979793548583984375,1456011920.38018655776977539062,7888
128,1456011920.514556884765625,1456011920.51478147506713867188,7864
129,1456011920.63953566551208496094,1456011920.63977909088134765625,7832
130,1456011920.76467132568359375,1456011920.7648944854736328125,7784
131,1456011920.88844156265258789062,1456011920.88866901397705078125,7720
132,1456011921.01168537139892578125,1456011921.01190972328186035156,7648
133,1456011921.13413643836975097656,1456011921.13435649871826171875,7568
134,1456011921.25468158721923828125,1456011921.25490665435791015625,7480
135,1456011921.37403106689453125,1456011921.37425732612609863281,7376
136,1456011921.49186778068542480469,1456011921.49209523200988769531,7264
137,1456011921.60809540748596191406,1456011921.60831737518310546875,7152
138,1456011921.72322583198547363281,1456011921.72356104850769042969,7032
139,1456011921.83591103553771972656,1456011921.8361492156982421875,6912
140,1456011921.9470958709716796875,1456011921.94731760025024414062,6784
141,1456011922.05674099922180175781,1456011922.0569610595703125,6656
142,1456011922.16386103630065917969,1456011922.164089202880859375,6528
143,1456011922.26912617683410644531,1456011922.26935172080993652344,6392
144,1456011922.3731784820556640625,1456011922.37347555160522460938,6264
145,1456011922.47555065155029296875,1456011922.47577548027038574219,6136
146,1456011922.57799386978149414062,1456011922.57821679115295410156,6008
147,1456011922.68054437637329101562,1456011922.6807727813720703125,5880
148,1456011922.78183770179748535156,1456011922.78206396102905273438,5752
149,1456011922.88342261314392089844,1456011922.8836536407470703125,5632
150,1456011922.98585915565490722656,1456011922.98608732223510742188,5504
151,1456011923.08904671669006347656,1456011923.08927440643310546875,5384
152,1456011923.19100308418273925781,1456011923.19123482704162597656,5272
153,1456011923.29187321662902832031,1456011923.29210066795349121094,5160
154,1456011923.39394545555114746094,1456011923.39417004585266113281,5048
155,1456011923.49516153335571289062,1456011923.49538254737854003906,4952
156,1456011923.59761166572570800781,1456011923.59783792495727539062,4856
157,1456011923.69933843612670898438,1456011923.69956445693969726562,4768
158,1456011923.80049228668212890625,1456011923.800716400146484375,4680
159,1456011923.9023914337158203125,1456011923.90262103080749511719,4608
160,1456011924.00286602973937988281,1456011924.00309062004089355469,4536
161,1456011924.1051959991455078125,1456011924.10542130470275878906,4480
162,1456011924.20746660232543945312,1456011924.20769071578979492188,4424
163,1456011924.30838823318481445312,1456011924.30860924720764160156,4384
164,1456011924.40952467918395996094,1456011924.40974736213684082031,4344
165,1456011924.51085948944091796875,1456011924.51126837730407714844,4320
166,1456011924.61303496360778808594,1456011924.61325478553771972656,4304
167,1456011924.71546626091003417969,1456011924.71568703651428222656,4296
168,1456011924.81678652763366699219,1456011924.81701111793518066406,4296
169,1456011924.9168415069580078125,1456011924.91707491874694824219,4304
170,1456011925.01634049415588378906,1456011925.01655077934265136719,4320
171,1456011925.11649680137634277344,1456011925.1167087554931640625,4344
172,1456011925.21792721748352050781,1456011925.2181453704833984375,4384
173,1456011925.31827306747436523438,1456011925.31849002838134765625,4424
174,1456011925.41769719123840332031,1456011925.41790843009948730469,4480
175,1456011925.51743483543395996094,1456011925.51764750480651855469,4536
176,1456011925.61877655982971191406,1456011925.618991851806640625,4608
177,1456011925.72068023681640625,1456011925.72090077400207519531,4680
178,1456011925.82115292549133300781,1456011925.82136774063110351562,4760
179,1456011925.921642303466796875,1456011925.92187452316284179688,4848
180,1456011926.02179384231567382812,1456011926.02200865745544433594,4944
181,1456011926.12266683578491210938,1456011926.12288212776184082031,5048
182,1456011926.2241344451904296875,1456011926.22435164451599121094,5152
183,1456011926.32576751708984375,1456011926.3259792327880859375,5264
184,1456011926.42548465728759765625,1456011926.42569422721862792969,5376
185,1456011926.52532982826232910156,1456011926.52554869651794433594,5496
186,1456011926.62699937820434570312,1456011926.62722373008728027344,5616
187,1456011926.7286739349365234375,1456011926.72888946533203125,5736
188,1456011926.82976603507995605469,1456011926.82997989654541015625,5864
189,1456011926.93010115623474121094,1456011926.93032526969909667969,5992
190,1456011927.031219482421875,1456011927.03143954277038574219,6120
191,1456011927.13356566429138183594,1456011927.13378620147705078125,6248
192,1456011927.23471426963806152344,1456011927.23492670059204101562,6368
193,1456011927.33684492111206054688,1456011927.33710074424743652344,6496
194,1456011927.43751811981201171875,1456011927.43773126602172851562,6616
195,1456011927.53841519355773925781,1456011927.53862857818603515625,6736
196,1456011927.63982510566711425781,1456011927.64004278182983398438,6856
197,1456011927.74089694023132324219,1456011927.7411060333251953125,6968
198,1456011927.84292054176330566406,1456011927.843135833740234375,7080
199,1456011927.94427943229675292969,1456011927.9445095062255859375,7184
200,1456011928.05923795700073242188,1456011928.05945658683776855469,7296
201,1456011928.17888426780700683594,1456011928.17910075187683105469,7400
202,1456011928.29936194419860839844,1456011928.29958415031433105469,7504
203,1456011928.4218578338623046875,1456011928.42207098007202148438,7592
204,1456011928.54493188858032226562,1456011928.54514813423156738281,7672
205,1456011928.66922426223754882812,1456011928.66952037811279296875,7744
206,1456011928.79428148269653320312,1456011928.79468894004821777344,7800
207,1456011928.91976571083068847656,1456011928.91998314857482910156,7840
208,1456011929.04585599899291992188,1456011929.0460662841796875,7872
209,1456011929.17269992828369140625,1456011929.17293000221252441406,7888
210,1456011929.29861736297607421875,1456011929.29883265495300292969,7888
211,1456011929.42526268959045410156,1456011929.42548608779907226562,7880
212,1456011929.55908179283142089844,1456011929.55930233001708984375,7856
213,1456011929.68472909927368164062,1456011929.68495798110961914062,7816
214,1456011929.8089313507080078125,1456011929.80915665626525878906,7760
215,1456011929.93299269676208496094,1456011929.93321776390075683594,7696
216,1456011930.05575990676879882812,1456011930.05597949028015136719,7624
217,1456011930.17757844924926757812,1456011930.17779898643493652344,7536
218,1456011930.29760336875915527344,1456011930.29782819747924804688,7440
219,1456011930.41647362709045410156,1456011930.41670322418212890625,7336
220,1456011930.53400540351867675781,1456011930.53422784805297851562,7224
221,1456011930.64944434165954589844,1456011930.64966130256652832031,7112
222,1456011930.76461863517761230469,1456011930.76484322547912597656,6992
223,1456011930.87634134292602539062,1456011930.87656879425048828125,6864
224,1456011930.9866199493408203125,1456011930.98684525489807128906,6736
225,1456011931.09499835968017578125,1456011931.09522175788879394531,6608
226,1456011931.20209193229675292969,1456011931.20231342315673828125,6480
227,1456011931.30685567855834960938,1456011931.307079315185546875,6344
228,1456011931.40997409820556640625,1456011931.41019582748413085938,6216
229,1456011931.51203441619873046875,1456011931.51226854324340820312,6088
230,1456011931.61449146270751953125,1456011931.61471414566040039062,5960
231,1456011931.717288970947265625,1456011931.71751713752746582031,5832
232,1456011931.81870555877685546875,1456011931.81893277168273925781,5712
233,1456011931.92043209075927734375,1456011931.92065668106079101562,5584
234,1456011932.0220317840576171875,1456011932.02225184440612792969,5464
235,1456011932.12414908409118652344,1456011932.12437152862548828125,5344
236,1456011932.22646594047546386719,1456011932.22668719291687011719,5232
237,1456011932.32815337181091308594,1456011932.3283748626708984375,5120
238,1456011932.4294643402099609375,1456011932.42968773841857910156,5016
239,1456011932.53078866004943847656,1456011932.53102350234985351562,4920
240,1456011932.63363194465637207031,1456011932.63384938240051269531,4824
241,1456011932.73569726943969726562,1456011932.73591637611389160156,4736
242,1456011932.83747577667236328125,1456011932.83770418167114257812,4656
243,1456011932.93845462799072265625,1456011932.93867731094360351562,4584
244,1456011933.04007840156555175781,1456011933.04049348831176757812,4512
245,1456011933.14198398590087890625,1456011933.14220714569091796875,4456
246,1456011933.24408030509948730469,1456011933.24435567855834960938,4408
247,1456011933.34641242027282714844,1456011933.34664201736450195312,4368
248,1456011933.446994781494140625,1456011933.44721579551696777344,4336
249,1456011933.54899859428405761719,1456011933.54924297332763671875,4312
250,1456011933.65078830718994140625,1456011933.65101265907287597656,4296
251,1456011933.75263452529907226562,1456011933.75284743309020996094,4296
252,1456011933.85455346107482910156,1456011933.85477137565612792969,4296
253,1456011933.95444965362548828125,1456011933.95466542243957519531,4312
254,1456011934.05459380149841308594,1456011934.05480980873107910156,4328
255,1456011934.15529179573059082031,1456011934.1555233001708984375,4360
256,1456011934.26545095443725585938,1456011934.26566815376281738281,4400
257,1456011934.36703419685363769531,1456011934.367252349853515625,4448
258,1456011934.46809101104736328125,1456011934.46831655502319335938,4504
259,1456011934.5690631866455078125,1456011934.56929445266723632812,4568
260,1456011934.66959619522094726562,1456011934.66981053352355957031,4640
261,1456011934.77001023292541503906,1456011934.77022027969360351562,4720
262,1456011934.87117242813110351562,1456011934.87138819694519042969,4808
263,1456011934.97289705276489257812,1456011934.97311735153198242188,4896
264,1456011935.07410597801208496094,1456011935.0743255615234375,5000
265,1456011935.17455220222473144531,1456011935.17476916313171386719,5096
266,1456011935.27560114860534667969,1456011935.27581858634948730469,5208
267,1456011935.37767052650451660156,1456011935.37788224220275878906,5320
268,1456011935.479770660400390625,1456011935.47998213768005371094,5440
269,1456011935.58030796051025390625,1456011935.58053541183471679688,5560
270,1456011935.68164825439453125,1456011935.681858062744140625,5680
271,1456011935.78276467323303222656,1456011935.78298425674438476562,5808
272,1456011935.88436293601989746094,1456011935.88458395004272460938,5936
273,1456011935.9860687255859375,1456011935.9862880706787109375,6064
274,1456011936.08761501312255859375,1456011936.08782458305358886719,6184
275,1456011936.18947553634643554688,1456011936.18969178199768066406,6312
276,1456011936.29106307029724121094,1456011936.2912731170654296875,6440
