id, time (s), size (bits)
0,1456013991.19990062713623046875,81128
1,1456013991.24884104728698730469,80696
2,1456013991.29952931404113769531,80240
3,1456013991.34925079345703125,79776
4,1456013991.39867091178894042969,79296
5,1456013991.44944167137145996094,78792
6,1456013991.49897265434265136719,78280
7,1456013991.54965114593505859375,77736
8,1456013991.59955286979675292969,77192
9,1456013991.64931654930114746094,76632
10,1456013991.69913840293884277344,76056
11,1456013991.74864292144775390625,75472
12,1456013991.79948449134826660156,74864
13,1456013991.84897613525390625,74264
14,1456013991.89969563484191894531,73632
15,1456013991.94938540458679199219,73000
16,1456013991.998920440673828125,72368
17,1456013992.04901099205017089844,71720
18,1456013992.09956598281860351562,71056
19,1456013992.14934945106506347656,70392
20,1456013992.19896674156188964844,69728
21,1456013992.24964141845703125,69048
22,1456013992.29933643341064453125,68376
23,1456013992.34921550750732421875,67696
24,1456013992.39874100685119628906,67016
25,1456013992.44930720329284667969,66328
26,1456013992.49913811683654785156,65640
27,1456013992.54874682426452636719,64960
28,1456013992.59951877593994140625,64264
29,1456013992.64894628524780273438,63592
30,1456013992.69968008995056152344,62896
31,1456013992.74918961524963378906,62224
32,1456013992.79893350601196289062,61552
33,1456013992.84878396987915039062,60888
34,1456013992.89926409721374511719,60216
35,1456013992.94915270805358886719,59568
36,1456013992.99854588508605957031,58920
37,1456013993.04944348335266113281,58272
38,1456013993.09904241561889648438,57648
39,1456013993.14859318733215332031,57024
40,1456013993.19923448562622070312,56408
41,1456013993.24903702735900878906,55808
42,1456013993.2987060546875,55224
43,1456013993.34932851791381835938,54640
44,1456013993.39910650253295898438,54080
45,1456013993.44856858253479003906,53536
46,1456013993.49932360649108886719,53000
47,1456013993.54905056953430175781,52480
48,1456013993.5987186431884765625,51984
49,1456013993.64944553375244140625,51488
50,1456013993.69981312751770019531,51016
51,1456013993.74855065345764160156,50584
52,1456013993.79954576492309570312,50136
53,1456013993.84859943389892578125,49736
54,1456013993.89901185035705566406,49336
55,1456013993.94950604438781738281,48960
56,1456013993.99872803688049316406,48608
57,1456013994.04934668540954589844,48272
58,1456013994.098590850830078125,47968
59,1456013994.14912366867065429688,47672
60,1456013994.19947385787963867188,47400
61,1456013994.2486820220947265625,47160
62,1456013994.29926395416259765625,46936
63,1456013994.34963917732238769531,46728
64,1456013994.39911603927612304688,46552
65,1456013994.44963049888610839844,46400
66,1456013994.49904346466064453125,46272
67,1456013994.54951453208923339844,46160
68,1456013994.59915304183959960938,46080
69,1456013994.64946031570434570312,46016
70,1456013994.69861531257629394531,45976
71,1456013994.74914193153381347656,45968
72,1456013994.79956960678100585938,45976
73,1456013994.84923076629638671875,46016
74,1456013994.89954590797424316406,46072
75,1456013994.94903516769409179688,46160
76,1456013994.99933576583862304688,46264
77,1456013995.04890775680541992188,46392
78,1456013995.0993099212646484375,46552
79,1456013995.14848065376281738281,46720
80,1456013995.19895696640014648438,46928
81,1456013995.24926447868347167969,47152
82,1456013995.29870176315307617188,47392
83,1456013995.34908723831176757812,47664
84,1456013995.3997039794921875,47952
85,1456013995.44910120964050292969,48264
86,1456013995.49953556060791015625,48600
87,1456013995.54897999763488769531,48944
88,1456013995.59948492050170898438,49320
89,1456013995.64890217781066894531,49712
90,1456013995.69934248924255371094,50128
91,1456013995.74879813194274902344,50552
92,1456013995.79900336265563964844,51008
93,1456013995.849613189697265625,51480
94,1456013995.89897584915161132812,51960
95,1456013995.94957399368286132812,52464
96,1456013995.99890255928039550781,52976
97,1456013996.04933595657348632812,53512
98,1456013996.09890270233154296875,54056
99,1456013996.14917325973510742188,54624
100,1456013996.19867062568664550781,55192
101,1456013996.24906253814697265625,55784
102,1456013996.29966139793395996094,56392
103,1456013996.34920525550842285156,57000
104,1456013996.39963626861572265625,57624
105,1456013996.44907903671264648438,58248
106,1456013996.49947810173034667969,58896
107,1456013996.54892063140869140625,59536
108,1456013996.59920144081115722656,60200
109,1456013996.64852404594421386719,60848
110,1456013996.69893360137939453125,61528
111,1456013996.74970078468322753906,62208
112,1456013996.79882311820983886719,62872
113,1456013996.84917616844177246094,63560
114,1456013996.89951729774475097656,64248
115,1456013996.94896721839904785156,64928
116,1456013996.99956035614013671875,65624
117,1456013997.04893732070922851562,66296
118,1456013997.09947133064270019531,66992
119,1456013997.14878773689270019531,67664
120,1456013997.19946932792663574219,68360
121,1456013997.24889659881591796875,69024
122,1456013997.299404144287109375,69704
123,1456013997.34883785247802734375,70368
124,1456013997.39914011955261230469,71032
125,1456013997.44867372512817382812,71688
126,1456013997.49910497665405273438,72336
127,1456013997.54855799674987792969,72976
128,1456013997.59887242317199707031,73608
129,1456013997.64901709556579589844,74232
130,1456013997.69957876205444335938,74848
131,1456013997.74922680854797363281,75448
132,1456013997.79967021942138671875,76040
133,1456013997.84908294677734375,76608
134,1456013997.8985385894775390625,77168
135,1456013997.94909715652465820312,77720
136,1456013997.99876284599304199219,78248
137,1456013998.04912114143371582031,78776
138,1456013998.09973478317260742188,79280
139,1456013998.14925026893615722656,79760
140,1456013998.20000410079956054688,80240
141,1456013998.249538421630859375,80680
142,1456013998.29894351959228515625,81112
143,1456013998.34958171844482421875,81528
144,1456013998.39897704124450683594,81920
145,1456013998.44977355003356933594,82296
146,1456013998.49933314323425292969,82648
147,1456013998.54881429672241210938,82976
148,1456013998.59930634498596191406,83296
149,1456013998.64876055717468261719,83584
150,1456013998.69938611984252929688,83856
151,1456013998.74893975257873535156,84096
152,1456013998.79957795143127441406,84328
153,1456013998.84908843040466308594,84520
154,1456013998.89861130714416503906,84696
155,1456013998.94915103912353515625,84856
156,1456013998.99981784820556640625,84992
157,1456013999.04927730560302734375,85096
158,1456013999.09987306594848632812,85184
159,1456013999.14925169944763183594,85240
160,1456013999.19972181320190429688,85280
161,1456013999.2494182586669921875,85288
162,1456013999.298740386962890625,85280
163,1456013999.34936738014221191406,85240
164,1456013999.39874744415283203125,85184
165,1456013999.44930005073547363281,85096
166,1456013999.49861216545104980469,84992
167,1456013999.54900693893432617188,84864
168,1456013999.59924983978271484375,84704
169,1456013999.64951252937316894531,84528
170,1456013999.69920611381530761719,84328
171,1456013999.74952030181884765625,84104
172,1456013999.79890394210815429688,83864
173,1456013999.84914398193359375,83592
174,1456013999.89954042434692382812,83304
175,1456013999.94883036613464355469,82992
176,1456013999.99933719635009765625,82656
177,1456014000.048572540283203125,82312
178,1456014000.09887385368347167969,81936
179,1456014000.14937329292297363281,81536
180,1456014000.19973635673522949219,81120
181,1456014000.2492427825927734375,80696
182,1456014000.29950809478759765625,80240
183,1456014000.34883475303649902344,79784
184,1456014000.39903426170349121094,79296
185,1456014000.44953322410583496094,78792
186,1456014000.49887228012084960938,78280
187,1456014000.54909467697143554688,77744
188,1456014000.59860014915466308594,77200
189,1456014000.64892983436584472656,76632
190,1456014000.69948816299438476562,76056
191,1456014000.74884557723999023438,75472
192,1456014000.79922556877136230469,74872
193,1456014000.84947252273559570312,74256
194,1456014000.89871120452880859375,73640
195,1456014000.9490528106689453125,73008
196,1456014000.99937891960144042969,72360
197,1456014001.04894661903381347656,71720
198,1456014001.099273681640625,71056
199,1456014001.14879393577575683594,70400
200,1456014001.19925570487976074219,69728
201,1456014001.24883413314819335938,69056
202,1456014001.29920983314514160156,68376
203,1456014001.34980797767639160156,67688
204,1456014001.39920949935913085938,67008
205,1456014001.44968438148498535156,66320
206,1456014001.49928903579711914062,65640
207,1456014001.54852318763732910156,64960
208,1456014001.59910631179809570312,64272
209,1456014001.64938879013061523438,63584
210,1456014001.69887137413024902344,62912
211,1456014001.74926304817199707031,62224
212,1456014001.79869890213012695312,61560
213,1456014001.84907197952270507812,60888
214,1456014001.89955258369445800781,60216
215,1456014001.94930052757263183594,59560
216,1456014001.99860358238220214844,58920
217,1456014002.04916691780090332031,58272
218,1456014002.0995693206787109375,57640
219,1456014002.14902377128601074219,57024
220,1456014002.19949245452880859375,56408
221,1456014002.24911618232727050781,55808
222,1456014002.29950046539306640625,55216
223,1456014002.348907470703125,54648
224,1456014002.39938688278198242188,54080
225,1456014002.44893097877502441406,53536
226,1456014002.49951291084289550781,53000
227,1456014002.54898571968078613281,52480
228,1456014002.59963393211364746094,51976
229,1456014002.64891219139099121094,51496
230,1456014002.69963908195495605469,51024
231,1456014002.74909543991088867188,50576
232,1456014002.799213409423828125,50144
233,1456014002.84963846206665039062,49728
234,1456014002.89911437034606933594,49336
235,1456014002.94859528541564941406,48968
236,1456014002.99907469749450683594,48608
237,1456014003.04968810081481933594,48272
238,1456014003.0989971160888671875,47960
239,1456014003.14963006973266601562,47672
240,1456014003.19894337654113769531,47408
241,1456014003.24932503700256347656,47160
242,1456014003.29892492294311523438,46936
243,1456014003.34915471076965332031,46736
244,1456014003.39960765838623046875,46552
245,1456014003.44887328147888183594,46400
246,1456014003.4994716644287109375,46264
247,1456014003.54887676239013671875,46160
248,1456014003.59940385818481445312,46072
249,1456014003.64871168136596679688,46016
250,1456014003.6989994049072265625,45976
251,1456014003.74959564208984375,45968
252,1456014003.79898738861083984375,45976
253,1456014003.84940361976623535156,46016
254,1456014003.89866018295288085938,46072
255,1456014003.94935393333435058594,46160
256,1456014003.99975705146789550781,46264
257,1456014004.04914593696594238281,46392
258,1456014004.09947133064270019531,46552
259,1456014004.14889049530029296875,46728
260,1456014004.19944715499877929688,46928
261,1456014004.24877190589904785156,47144
262,1456014004.29939055442810058594,47392
263,1456014004.34857583045959472656,47656
264,1456014004.39934110641479492188,47952
265,1456014004.44869780540466308594,48256
266,1456014004.49920487403869628906,48592
267,1456014004.54959201812744140625,48952
268,1456014004.59900712966918945312,49320
269,1456014004.64973187446594238281,49720
270,1456014004.69920182228088378906,50128
271,1456014004.74857473373413085938,50552
272,1456014004.79895949363708496094,51008
273,1456014004.84954428672790527344,51480
274,1456014004.89889955520629882812,51960
275,1456014004.94951462745666503906,52464
276,1456014004.99890398979187011719,52976
277,1456014005.04930639266967773438,53512
278,1456014005.09887337684631347656,54056
279,1456014005.14929676055908203125,54624
280,1456014005.19876217842102050781,55192
281,1456014005.24904799461364746094,55784
282,1456014005.29968500137329101562,56392
283,1456014005.34909796714782714844,57000
284,1456014005.39975976943969726562,57624
285,1456014005.44925165176391601562,58248
286,1456014005.49962735176086425781,58896
287,1456014005.549236297607421875,59544
288,1456014005.59960889816284179688,60200
289,1456014005.64939379692077636719,60864
290,1456014005.69876313209533691406,61520
291,1456014005.74927020072937011719,62200
292,1456014005.79966497421264648438,62888
293,1456014005.84931802749633789062,63560
294,1456014005.89874053001403808594,64240
295,1456014005.94926238059997558594,64928
296,1456014005.99872279167175292969,65608
297,1456014006.04913091659545898438,66304
298,1456014006.09863996505737304688,66976
299,1456014006.14913153648376464844,67672
300,1456014006.19979000091552734375,68360
301,1456014006.24912405014038085938,69024
302,1456014006.29970669746398925781,69712
303,1456014006.34905862808227539062,70368
304,1456014006.39956784248352050781,71040
305,1456014006.44929385185241699219,71696
306,1456014006.49856305122375488281,72328
307,1456014006.54924917221069335938,72984
308,1456014006.5996456146240234375,73616
309,1456014006.6493663787841796875,74240
310,1456014006.69873976707458496094,74840
311,1456014006.74927520751953125,75448
312,1456014006.79865550994873046875,76032
313,1456014006.84907650947570800781,76608
314,1456014006.8998279571533203125,77184
315,1456014006.94931817054748535156,77720
316,1456014006.99900341033935546875,78256
317,1456014007.04945349693298339844,78776
318,1456014007.09902811050415039062,79272
319,1456014007.14962291717529296875,79768
320,1456014007.19930529594421386719,80232
321,1456014007.24856901168823242188,80672
322,1456014007.29900574684143066406,81112
323,1456014007.34856390953063964844,81520
324,1456014007.39909219741821289062,81920
325,1456014007.4486522674560546875,82288
326,1456014007.49911451339721679688,82648
327,1456014007.54969191551208496094,82984
328,1456014007.59903407096862792969,83296
329,1456014007.64969038963317871094,83584
330,1456014007.69917607307434082031,83856
331,1456014007.74945831298828125,84104
332,1456014007.79914140701293945312,84320
333,1456014007.84948182106018066406,84528
334,1456014007.89915299415588378906,84704
335,1456014007.94962286949157714844,84856
336,1456014007.99915313720703125,84984
337,1456014008.04953694343566894531,85096
338,1456014008.09900975227355957031,85176
339,1456014008.14954042434692382812,85240
340,1456014008.19897127151489257812,85280
341,1456014008.24854040145874023438,85288
342,1456014008.29894399642944335938,85280
343,1456014008.34950470924377441406,85240
344,1456014008.39900231361389160156,85184
345,1456014008.44963359832763671875,85096
346,1456014008.49896097183227539062,84992
347,1456014008.54949331283569335938,84864
348,1456014008.59882068634033203125,84712
349,1456014008.64929318428039550781,84528
350,1456014008.69901514053344726562,84328
351,1456014008.74940776824951171875,84104
352,1456014008.79886507987976074219,83864
353,1456014008.84917855262756347656,83592
354,1456014008.89978790283203125,83304
355,1456014008.949253082275390625,82992
356,1456014008.99857449531555175781,82664
357,1456014009.04882073402404785156,82312
358,1456014009.09916734695434570312,81936
359,1456014009.1487751007080078125,81544
360,1456014009.19915938377380371094,81128
361,1456014009.24844193458557128906,80704
362,1456014009.29864001274108886719,80256
363,1456014009.34901452064514160156,79784
364,1456014009.39935588836669921875,79296
365,1456014009.44881439208984375,78800
366,1456014009.49901676177978515625,78280
367,1456014009.54923939704895019531,77744
368,1456014009.59861969947814941406,77200
369,1456014009.64904236793518066406,76632
370,1456014009.69955158233642578125,76056
371,1456014009.74875140190124511719,75472
372,1456014009.79924511909484863281,74872
373,1456014009.84944844245910644531,74256
374,1456014009.89890956878662109375,73640
375,1456014009.94926619529724121094,73000
376,1456014009.99942922592163085938,72360
377,1456014010.04880928993225097656,71720
378,1456014010.09904575347900390625,71064
379,1456014010.14961314201354980469,70392
380,1456014010.19891309738159179688,69728
381,1456014010.24937272071838378906,69048
382,1456014010.29966664314270019531,68368
383,1456014010.34913969039916992188,67696
384,1456014010.39950823783874511719,67008
385,1456014010.4488391876220703125,66328
386,1456014010.49921965599060058594,65640
387,1456014010.5494251251220703125,64952
388,1456014010.59888291358947753906,64272
389,1456014010.64927911758422851562,63584
390,1456014010.69976663589477539062,62896
391,1456014010.74899744987487792969,62232
392,1456014010.79952311515808105469,61544
393,1456014010.84876322746276855469,60888
394,1456014010.89908361434936523438,60224
395,1456014010.94960165023803710938,59560
396,1456014010.99879622459411621094,58920
397,1456014011.04918193817138671875,58272
398,1456014011.09943938255310058594,57640
399,1456014011.14902973175048828125,57024
400,1456014011.199329376220703125,56408
401,1456014011.24977636337280273438,55800
402,1456014011.29908680915832519531,55224
403,1456014011.34927320480346679688,54640
404,1456014011.39869642257690429688,54088
405,1456014011.44900584220886230469,53536
406,1456014011.49939489364624023438,53000
407,1456014011.54964590072631835938,52480
408,1456014011.59917330741882324219,51976
409,1456014011.64956688880920410156,51488
410,1456014011.69903802871704101562,51024
411,1456014011.74937939643859863281,50576
412,1456014011.79863739013671875,50144
413,1456014011.84902310371398925781,49728
414,1456014011.89933252334594726562,49336
415,1456014011.94883489608764648438,48960
416,1456014011.9990558624267578125,48608
417,1456014012.04958200454711914062,48272
418,1456014012.09879517555236816406,47968
419,1456014012.14935302734375,47672
420,1456014012.19853353500366210938,47408
421,1456014012.24876451492309570312,47160
422,1456014012.29918789863586425781,46936
423,1456014012.34944629669189453125,46728
424,1456014012.39896035194396972656,46552
425,1456014012.44928693771362304688,46400
426,1456014012.49978923797607421875,46264
427,1456014012.54903745651245117188,46160
428,1456014012.59936428070068359375,46072
429,1456014012.64971780776977539062,46016
430,1456014012.6989994049072265625,45976
431,1456014012.74950814247131347656,45968
432,1456014012.7988739013671875,45976
433,1456014012.84933924674987792969,46016
434,1456014012.89870095252990722656,46072
435,1456014012.94946432113647460938,46160
436,1456014012.99889373779296875,46264
437,1456014013.04943203926086425781,46392
438,1456014013.09878420829772949219,46544
439,1456014013.14930415153503417969,46728
440,1456014013.19892477989196777344,46928
441,1456014013.24936366081237792969,47152
442,1456014013.299030303955078125,47392
443,1456014013.34938907623291015625,47664
444,1456014013.39898324012756347656,47952
445,1456014013.44942259788513183594,48264
446,1456014013.49875640869140625,48592
447,1456014013.54910492897033691406,48944
448,1456014013.59938097000122070312,49320
449,1456014013.64890837669372558594,49712
450,1456014013.69932603836059570312,50128
451,1456014013.74884867668151855469,50552
452,1456014013.79923534393310546875,51008
453,1456014013.84976530075073242188,51480
454,1456014013.89925050735473632812,51960
455,1456014013.94989609718322753906,52472
456,1456014013.99924325942993164062,52984
457,1456014014.04963541030883789062,53520
458,1456014014.099132537841796875,54064
459,1456014014.14964032173156738281,54624
460,1456014014.19936299324035644531,55200
461,1456014014.24855303764343261719,55776
462,1456014014.29910254478454589844,56384
463,1456014014.349521636962890625,57000
464,1456014014.39919209480285644531,57616
465,1456014014.44968461990356445312,58256
466,1456014014.4990482330322265625,58888
467,1456014014.54964137077331542969,59544
468,1456014014.59903097152709960938,60192
469,1456014014.64875435829162597656,60856
470,1456014014.69856810569763183594,61520
471,1456014014.74906039237976074219,62200
472,1456014014.79948449134826660156,62880
473,1456014014.84897279739379882812,63560
474,1456014014.89946103096008300781,64248
475,1456014014.94888329505920410156,64928
476,1456014014.99940824508666992188,65616
477,1456014015.04863977432250976562,66296
478,1456014015.09928226470947265625,66992
479,1456014015.14868068695068359375,67664
480,1456014015.19930410385131835938,68352
