id, time (s), size (bits)
0,1456013989.01139736175537109375,78384
1,1456013989.06100726127624511719,78896
2,1456013989.11116862297058105469,79392
3,1456013989.16050672531127929688,79872
4,1456013989.2104778289794921875,80336
5,1456013989.2609004974365234375,80784
6,1456013989.31102466583251953125,81216
7,1456013989.36111593246459960938,81624
8,1456013989.41070723533630371094,82008
9,1456013989.46070504188537597656,82376
10,1456013989.51101374626159667969,82728
11,1456013989.56111598014831542969,83056
12,1456013989.61130499839782714844,83368
13,1456013989.66036748886108398438,83648
14,1456013989.71068310737609863281,83912
15,1456013989.76068282127380371094,84152
16,1456013989.81081438064575195312,84368
17,1456013989.86060929298400878906,84568
18,1456013989.91057515144348144531,84736
19,1456013989.96100687980651855469,84888
20,1456013990.01107716560363769531,85016
21,1456013990.06118106842041015625,85120
22,1456013990.11125779151916503906,85200
23,1456013990.16037249565124511719,85248
24,1456013990.21052861213684082031,85280
25,1456013990.26064777374267578125,85288
26,1456013990.31113147735595703125,85272
27,1456013990.36133503913879394531,85232
28,1456013990.410675048828125,85168
29,1456013990.46061491966247558594,85080
30,1456013990.51095414161682128906,84960
31,1456013990.56110715866088867188,84824
32,1456013990.611446380615234375,84664
33,1456013990.66088008880615234375,84488
34,1456013990.71097469329833984375,84280
35,1456013990.76012396812438964844,84056
36,1456013990.81121659278869628906,83800
37,1456013990.86041736602783203125,83528
38,1456013990.91037631034851074219,83240
39,1456013990.96074986457824707031,82920
40,1456013991.01079702377319335938,82584
41,1456013991.06126189231872558594,82216
42,1456013991.11025929450988769531,81848
43,1456013991.16003012657165527344,81456
44,1456013991.2102794647216796875,81032
45,1456013991.26025938987731933594,80600
46,1456013991.31052708625793457031,80144
47,1456013991.36074066162109375,79672
48,1456013991.41103792190551757812,79176
49,1456013991.46096634864807128906,78672
50,1456013991.51139521598815917969,78144
51,1456013991.56050014495849609375,77616
52,1456013991.61061215400695800781,77064
53,1456013991.66100788116455078125,76496
54,1456013991.71092295646667480469,75920
55,1456013991.76130747795104980469,75328
56,1456013991.81026577949523925781,74736
57,1456013991.86031413078308105469,74120
58,1456013991.91036105155944824219,73496
59,1456013991.96082544326782226562,72856
60,1456013992.010860443115234375,72216
61,1456013992.06103539466857910156,71560
62,1456013992.11023974418640136719,70912
63,1456013992.16003918647766113281,70248
64,1456013992.21016621589660644531,69584
65,1456013992.26046824455261230469,68904
66,1456013992.3107242584228515625,68216
67,1456013992.36083459854125976562,67536
68,1456013992.41111612319946289062,66848
69,1456013992.46127867698669433594,66160
70,1456013992.51021432876586914062,65488
71,1456013992.56042003631591796875,64800
72,1456013992.61053037643432617188,64112
73,1456013992.66074037551879882812,63424
74,1456013992.71063327789306640625,62752
75,1456013992.76090145111083984375,62064
76,1456013992.8108615875244140625,61392
77,1456013992.86133599281311035156,60720
78,1456013992.91050291061401367188,60072
79,1456013992.96046137809753417969,59416
80,1456013993.01083540916442871094,58768
81,1456013993.06095409393310546875,58128
82,1456013993.11113810539245605469,57496
83,1456013993.16131734848022460938,56872
84,1456013993.21060633659362792969,56272
85,1456013993.26065468788146972656,55672
86,1456013993.31094908714294433594,55080
87,1456013993.36111140251159667969,54512
88,1456013993.41123056411743164062,53952
89,1456013993.46056604385375976562,53408
90,1456013993.51059937477111816406,52880
91,1456013993.56093311309814453125,52360
92,1456013993.61100935935974121094,51864
93,1456013993.66140961647033691406,51376
94,1456013993.71062040328979492188,50920
95,1456013993.76102995872497558594,50472
96,1456013993.81075024604797363281,50048
97,1456013993.8602542877197265625,49640
98,1456013993.91009449958801269531,49256
99,1456013993.96124005317687988281,48872
100,1456013994.01029443740844726562,48528
101,1456013994.06007933616638183594,48208
102,1456013994.11146306991577148438,47888
103,1456013994.16048836708068847656,47608
104,1456013994.21057057380676269531,47344
105,1456013994.26051783561706542969,47104
106,1456013994.31056141853332519531,46888
107,1456013994.36073541641235351562,46688
108,1456013994.41087007522583007812,46512
109,1456013994.46083021163940429688,46368
110,1456013994.51056432723999023438,46240
111,1456013994.56088685989379882812,46136
112,1456013994.61085343360900878906,46064
113,1456013994.66122865676879882812,46008
114,1456013994.710308074951171875,45976
115,1456013994.76009893417358398438,45968
116,1456013994.81034111976623535156,45984
117,1456013994.86023545265197753906,46024
118,1456013994.91048693656921386719,46088
119,1456013994.96073365211486816406,46176
120,1456013995.01122188568115234375,46296
121,1456013995.06117105484008789062,46432
122,1456013995.11148858070373535156,46592
123,1456013995.16049337387084960938,46768
124,1456013995.21038770675659179688,46976
125,1456013995.26074695587158203125,47200
126,1456013995.31076312065124511719,47456
127,1456013995.36128187179565429688,47728
128,1456013995.410308837890625,48016
129,1456013995.46132874488830566406,48344
130,1456013995.51035022735595703125,48672
131,1456013995.56053590774536132812,49032
132,1456013995.61072826385498046875,49408
133,1456013995.66085767745971679688,49808
134,1456013995.7112674713134765625,50232
135,1456013995.76135396957397460938,50664
136,1456013995.81083822250366210938,51112
137,1456013995.86085271835327148438,51584
138,1456013995.91116237640380859375,52080
139,1456013995.96132159233093261719,52584
140,1456013996.01049947738647460938,53096
141,1456013996.06075453758239746094,53640
142,1456013996.11093735694885253906,54192
143,1456013996.16118693351745605469,54760
144,1456013996.21133279800415039062,55336
145,1456013996.26081681251525878906,55920
146,1456013996.31093811988830566406,56528
147,1456013996.3613834381103515625,57144
148,1456013996.41038227081298828125,57760
149,1456013996.46052289009094238281,58392
150,1456013996.51070928573608398438,59040
151,1456013996.5607624053955078125,59688
152,1456013996.6110706329345703125,60352
153,1456013996.66125559806823730469,61016
154,1456013996.71071529388427734375,61680
155,1456013996.76095509529113769531,62360
156,1456013996.8112773895263671875,63040
157,1456013996.86009931564331054688,63712
158,1456013996.91140270233154296875,64408
159,1456013996.9605712890625,65088
160,1456013997.0106601715087890625,65776
161,1456013997.06106996536254882812,66464
162,1456013997.11117768287658691406,67152
163,1456013997.16065716743469238281,67824
164,1456013997.21082711219787597656,68512
165,1456013997.2610797882080078125,69192
166,1456013997.31114220619201660156,69864
167,1456013997.36144948005676269531,70536
168,1456013997.41048789024353027344,71184
169,1456013997.4605712890625,71840
170,1456013997.5110263824462890625,72496
171,1456013997.56101107597351074219,73128
172,1456013997.61133122444152832031,73768
173,1456013997.66030716896057128906,74376
174,1456013997.7103710174560546875,74984
175,1456013997.76043915748596191406,75584
176,1456013997.81083321571350097656,76168
177,1456013997.86081290245056152344,76744
178,1456013997.91089749336242675781,77304
179,1456013997.9600658416748046875,77840
180,1456013998.01109671592712402344,78384
181,1456013998.06138467788696289062,78896
182,1456013998.11048245429992675781,79384
183,1456013998.16083765029907226562,79872
184,1456013998.21118879318237304688,80336
185,1456013998.26152491569519042969,80792
186,1456013998.31074404716491699219,81208
187,1456013998.36096811294555664062,81616
188,1456013998.41027903556823730469,82008
189,1456013998.46045923233032226562,82376
190,1456013998.51094532012939453125,82728
191,1456013998.56105828285217285156,83056
192,1456013998.61136460304260253906,83368
193,1456013998.6603717803955078125,83648
194,1456013998.71058988571166992188,83912
195,1456013998.76081752777099609375,84152
196,1456013998.81086516380310058594,84368
197,1456013998.86147928237915039062,84568
198,1456013998.91069960594177246094,84736
199,1456013998.96103715896606445312,84888
200,1456013999.01122069358825683594,85016
201,1456013999.06065583229064941406,85120
202,1456013999.11075329780578613281,85192
203,1456013999.16117787361145019531,85248
204,1456013999.21020460128784179688,85280
205,1456013999.26116228103637695312,85288
206,1456013999.31034922599792480469,85272
207,1456013999.36052536964416503906,85232
208,1456013999.41078138351440429688,85168
209,1456013999.4612293243408203125,85072
210,1456013999.51158881187438964844,84960
211,1456013999.560588836669921875,84832
212,1456013999.61088490486145019531,84672
213,1456013999.66087055206298828125,84488
214,1456013999.71041536331176757812,84280
215,1456013999.76115059852600097656,84048
216,1456013999.810642242431640625,83800
217,1456013999.860309600830078125,83528
218,1456013999.91089797019958496094,83232
219,1456013999.96082735061645507812,82920
220,1456014000.01092529296875,82576
221,1456014000.0613555908203125,82216
222,1456014000.11017870903015136719,81848
223,1456014000.16100597381591796875,81448
224,1456014000.21110010147094726562,81024
225,1456014000.26095223426818847656,80592
226,1456014000.311145782470703125,80136
227,1456014000.36111927032470703125,79664
228,1456014000.41124033927917480469,79176
229,1456014000.46126127243041992188,78672
230,1456014000.51158237457275390625,78144
231,1456014000.56057238578796386719,77616
232,1456014000.61067652702331542969,77064
233,1456014000.6610774993896484375,76496
234,1456014000.71117234230041503906,75920
235,1456014000.76048493385314941406,75336
236,1456014000.81064009666442871094,74728
237,1456014000.86083912849426269531,74112
238,1456014000.91097402572631835938,73488
239,1456014000.96137142181396484375,72848
240,1456014001.010410308837890625,72216
241,1456014001.06051707267761230469,71568
242,1456014001.11077189445495605469,70904
243,1456014001.16090059280395507812,70240
244,1456014001.21131753921508789062,69568
245,1456014001.26023936271667480469,68904
246,1456014001.31059479713439941406,68224
247,1456014001.36072397232055664062,67536
248,1456014001.41096019744873046875,66848
249,1456014001.46113228797912597656,66160
250,1456014001.51124286651611328125,65472
251,1456014001.56120848655700683594,64792
252,1456014001.61126565933227539062,64104
253,1456014001.66045284271240234375,63432
254,1456014001.71037745475769042969,62752
255,1456014001.76077985763549804688,62072
256,1456014001.81063079833984375,61400
257,1456014001.861385345458984375,60720
258,1456014001.91024541854858398438,60072
259,1456014001.96107411384582519531,59408
260,1456014002.01123499870300292969,58760
261,1456014002.06128382682800292969,58120
262,1456014002.11036157608032226562,57504
263,1456014002.1604137420654296875,56880
264,1456014002.21061778068542480469,56272
265,1456014002.26045823097229003906,55672
266,1456014002.31052041053771972656,55088
267,1456014002.36048126220703125,54512
268,1456014002.41037440299987792969,53960
269,1456014002.46056127548217773438,53408
270,1456014002.51043200492858886719,52880
271,1456014002.56064057350158691406,52368
272,1456014002.61061739921569824219,51864
273,1456014002.66084432601928710938,51384
274,1456014002.71080350875854492188,50920
275,1456014002.76096510887145996094,50472
276,1456014002.81077051162719726562,50048
277,1456014002.86070799827575683594,49640
278,1456014002.91085743904113769531,49248
279,1456014002.96072173118591308594,48880
280,1456014003.010967254638671875,48528
281,1456014003.0608043670654296875,48200
282,1456014003.11099171638488769531,47888
283,1456014003.16094279289245605469,47608
284,1456014003.21096038818359375,47344
285,1456014003.26093316078186035156,47104
286,1456014003.31089043617248535156,46888
287,1456014003.36104798316955566406,46688
288,1456014003.41102337837219238281,46512
289,1456014003.46018648147583007812,46368
290,1456014003.51097273826599121094,46240
291,1456014003.56114649772644042969,46136
292,1456014003.61112165451049804688,46056
293,1456014003.66115498542785644531,46008
294,1456014003.71116495132446289062,45976
295,1456014003.7609958648681640625,45968
296,1456014003.81119084358215332031,45984
297,1456014003.86125111579895019531,46024
298,1456014003.91058945655822753906,46088
299,1456014003.96069264411926269531,46176
300,1456014004.01103377342224121094,46296
301,1456014004.06111860275268554688,46432
302,1456014004.11142206192016601562,46592
303,1456014004.16053247451782226562,46768
304,1456014004.21046614646911621094,46976
305,1456014004.26078891754150390625,47200
306,1456014004.31084942817687988281,47456
307,1456014004.36121082305908203125,47728
308,1456014004.41020369529724121094,48016
309,1456014004.46035313606262207031,48336
310,1456014004.51034760475158691406,48672
311,1456014004.56053090095520019531,49032
312,1456014004.61049914360046386719,49408
313,1456014004.660465240478515625,49808
314,1456014004.71074700355529785156,50224
315,1456014004.76071596145629882812,50664
316,1456014004.81113171577453613281,51120
317,1456014004.86124920845031738281,51592
318,1456014004.91024947166442871094,52072
319,1456014004.96137881278991699219,52584
320,1456014005.01067709922790527344,53104
321,1456014005.06063604354858398438,53640
322,1456014005.11072468757629394531,54192
323,1456014005.16104245185852050781,54760
324,1456014005.21109223365783691406,55336
325,1456014005.26125001907348632812,55928
326,1456014005.31004238128662109375,56520
327,1456014005.36139845848083496094,57152
328,1456014005.41046881675720214844,57760
329,1456014005.46072626113891601562,58400
330,1456014005.51087307929992675781,59040
331,1456014005.56097888946533203125,59696
332,1456014005.61027359962463378906,60344
333,1456014005.66031408309936523438,61008
334,1456014005.71064114570617675781,61680
335,1456014005.76071953773498535156,62360
336,1456014005.81097292900085449219,63040
337,1456014005.86103296279907226562,63720
338,1456014005.91130590438842773438,64408
339,1456014005.96030068397521972656,65080
340,1456014006.01019406318664550781,65768
341,1456014006.06071734428405761719,66456
342,1456014006.11084842681884765625,67144
343,1456014006.16110205650329589844,67832
344,1456014006.21118330955505371094,68512
345,1456014006.26036667823791503906,69184
346,1456014006.31039762496948242188,69856
347,1456014006.36065816879272460938,70528
348,1456014006.41079354286193847656,71192
349,1456014006.46068620681762695312,71840
350,1456014006.51117062568664550781,72496
351,1456014006.56132555007934570312,73136
352,1456014006.6107616424560546875,73760
353,1456014006.66100573539733886719,74376
354,1456014006.71131658554077148438,74992
355,1456014006.76046824455261230469,75576
356,1456014006.81099629402160644531,76168
357,1456014006.86114287376403808594,76744
358,1456014006.91131997108459472656,77304
359,1456014006.96092343330383300781,77848
360,1456014007.01104664802551269531,78376
361,1456014007.06040620803833007812,78888
362,1456014007.1105785369873046875,79384
363,1456014007.16103386878967285156,79872
364,1456014007.211322784423828125,80344
365,1456014007.26062822341918945312,80784
366,1456014007.31089639663696289062,81208
367,1456014007.36116647720336914062,81624
368,1456014007.41051936149597167969,82008
369,1456014007.46080565452575683594,82376
370,1456014007.51128983497619628906,82728
371,1456014007.56036925315856933594,83056
372,1456014007.61072659492492675781,83360
373,1456014007.66095590591430664062,83648
374,1456014007.7113552093505859375,83912
375,1456014007.76058673858642578125,84152
376,1456014007.81085109710693359375,84368
377,1456014007.86117243766784667969,84568
378,1456014007.91142010688781738281,84744
379,1456014007.96073698997497558594,84888
380,1456014008.01089954376220703125,85016
381,1456014008.06137323379516601562,85120
382,1456014008.11032724380493164062,85192
383,1456014008.1606616973876953125,85248
384,1456014008.21104764938354492188,85280
385,1456014008.26108264923095703125,85288
386,1456014008.31042122840881347656,85272
387,1456014008.36057567596435546875,85232
388,1456014008.41083288192749023438,85168
389,1456014008.46091365814208984375,85080
390,1456014008.51110982894897460938,84960
391,1456014008.56105017662048339844,84824
392,1456014008.61131715774536132812,84664
393,1456014008.66014194488525390625,84488
394,1456014008.71112155914306640625,84280
395,1456014008.76023149490356445312,84056
396,1456014008.81115865707397460938,83800
397,1456014008.8613834381103515625,83528
398,1456014008.91021227836608886719,83240
399,1456014008.96149325370788574219,82912
400,1456014009.01039981842041015625,82584
401,1456014009.060459136962890625,82224
402,1456014009.11020231246948242188,81848
403,1456014009.16119790077209472656,81440
404,1456014009.21022486686706542969,81032
405,1456014009.26107048988342285156,80592
406,1456014009.31132483482360839844,80136
407,1456014009.36017012596130371094,79672
408,1456014009.41148638725280761719,79176
409,1456014009.46033310890197753906,78680
410,1456014009.51136708259582519531,78144
411,1456014009.56138563156127929688,77608
412,1456014009.61033344268798828125,77072
413,1456014009.66046428680419921875,76504
414,1456014009.71047377586364746094,75928
415,1456014009.76071977615356445312,75328
416,1456014009.81058239936828613281,74728
417,1456014009.86078572273254394531,74112
418,1456014009.910762786865234375,73488
419,1456014009.96088099479675292969,72856
420,1456014010.01094293594360351562,72216
421,1456014010.06078743934631347656,71560
422,1456014010.11094021797180175781,70904
423,1456014010.16093039512634277344,70240
424,1456014010.21101689338684082031,69568
425,1456014010.26095843315124511719,68896
426,1456014010.31146478652954101562,68208
427,1456014010.36062312126159667969,67536
428,1456014010.41099643707275390625,66848
429,1456014010.46115589141845703125,66160
430,1456014010.51116633415222167969,65472
431,1456014010.56038880348205566406,64800
432,1456014010.61056303977966308594,64112
433,1456014010.66080498695373535156,63424
434,1456014010.71096444129943847656,62744
435,1456014010.76137256622314453125,62064
436,1456014010.81034398078918457031,61400
437,1456014010.86058545112609863281,60736
438,1456014010.91057729721069335938,60072
439,1456014010.96066617965698242188,59416
440,1456014011.01097726821899414062,58760
441,1456014011.06104183197021484375,58120
442,1456014011.11042261123657226562,57504
443,1456014011.16072034835815429688,56880
444,1456014011.21089434623718261719,56264
445,1456014011.26101422309875488281,55672
446,1456014011.31132078170776367188,55080
447,1456014011.36125087738037109375,54504
448,1456014011.41026616096496582031,53960
449,1456014011.46053862571716308594,53408
450,1456014011.51071906089782714844,52880
451,1456014011.56107640266418457031,52360
452,1456014011.61002635955810546875,51872
453,1456014011.66132092475891113281,51376
454,1456014011.7102947235107421875,50920
455,1456014011.76041293144226074219,50480
456,1456014011.81041359901428222656,50048
457,1456014011.86052608489990234375,49640
458,1456014011.91067576408386230469,49248
459,1456014011.96080660820007324219,48880
460,1456014012.01122188568115234375,48528
461,1456014012.06010961532592773438,48208
462,1456014012.11138844490051269531,47888
463,1456014012.16047930717468261719,47608
464,1456014012.21074008941650390625,47344
465,1456014012.26084804534912109375,47104
466,1456014012.31086492538452148438,46888
467,1456014012.36110830307006835938,46688
468,1456014012.41105508804321289062,46512
469,1456014012.46004652976989746094,46368
470,1456014012.51097941398620605469,46240
471,1456014012.56121587753295898438,46136
472,1456014012.61103296279907226562,46056
473,1456014012.66117262840270996094,46008
474,1456014012.7112369537353515625,45976
475,1456014012.76007294654846191406,45968
476,1456014012.810184478759765625,45984
477,1456014012.86129164695739746094,46024
478,1456014012.9107513427734375,46088
479,1456014012.9609851837158203125,46176
