id, time (s), size (bits)
0,1456013990.29100871086120605469,85280
1,1456013990.34002375602722167969,85248
2,1456013990.38951277732849121094,85192
3,1456013990.44027638435363769531,85112
4,1456013990.49010300636291503906,85016
5,1456013990.5401477813720703125,84888
6,1456013990.58971428871154785156,84736
7,1456013990.64028525352478027344,84560
8,1456013990.6901988983154296875,84368
9,1456013990.74003314971923828125,84152
10,1456013990.78994822502136230469,83912
11,1456013990.84041953086853027344,83640
12,1456013990.8902492523193359375,83360
13,1456013990.93993330001831054688,83056
14,1456013990.98972439765930175781,82728
15,1456013991.04040431976318359375,82368
16,1456013991.08992290496826171875,82008
17,1456013991.13996720314025878906,81616
18,1456013991.18929362297058105469,81208
19,1456013991.24014520645141601562,80776
20,1456013991.28983139991760253906,80336
21,1456013991.34046769142150878906,79864
22,1456013991.39012789726257324219,79384
23,1456013991.43992137908935546875,78888
24,1456013991.48957300186157226562,78376
25,1456013991.54016566276550292969,77840
26,1456013991.59000945091247558594,77296
27,1456013991.6405467987060546875,76728
28,1456013991.69027543067932128906,76160
29,1456013991.74002289772033691406,75576
30,1456013991.78967976570129394531,74984
31,1456013991.84019041061401367188,74368
32,1456013991.88997793197631835938,73752
33,1456013991.93967771530151367188,73128
34,1456013991.99032688140869140625,72480
35,1456013992.04042911529541015625,71832
36,1456013992.08994841575622558594,71184
37,1456013992.13955211639404296875,70528
38,1456013992.18996596336364746094,69848
39,1456013992.2398014068603515625,69184
40,1456013992.29046535491943359375,68496
41,1456013992.34025239944458007812,67816
42,1456013992.38999056816101074219,67136
43,1456013992.43933176994323730469,66464
44,1456013992.49026656150817871094,65760
45,1456013992.53994512557983398438,65080
46,1456013992.5894069671630859375,64400
47,1456013992.63999700546264648438,63712
48,1456013992.68952441215515136719,63032
49,1456013992.74023461341857910156,62344
50,1456013992.79010248184204101562,61672
51,1456013992.83969736099243164062,61008
52,1456013992.89025473594665527344,60336
53,1456013992.94000935554504394531,59680
54,1456013992.98957085609436035156,59040
55,1456013993.04038095474243164062,58384
56,1456013993.08986353874206542969,57760
57,1456013993.14057064056396484375,57128
58,1456013993.190067291259765625,56520
59,1456013993.239856719970703125,55920
60,1456013993.29050230979919433594,55320
61,1456013993.34055113792419433594,54744
62,1456013993.39049077033996582031,54176
63,1456013993.44011211395263671875,53632
64,1456013993.49008870124816894531,53096
65,1456013993.54007768630981445312,52576
66,1456013993.58967256546020507812,52072
67,1456013993.6400051116943359375,51584
68,1456013993.6900577545166015625,51112
69,1456013993.74020910263061523438,50656
70,1456013993.79023981094360351562,50216
71,1456013993.83993387222290039062,49808
72,1456013993.89025974273681640625,49408
73,1456013993.9398021697998046875,49032
74,1456013993.99027371406555175781,48672
75,1456013994.03992486000061035156,48336
76,1456013994.09025096893310546875,48016
77,1456013994.14090204238891601562,47720
78,1456013994.19014143943786621094,47448
79,1456013994.24062108993530273438,47200
80,1456013994.29023051261901855469,46968
81,1456013994.340335845947265625,46768
82,1456013994.38977980613708496094,46584
83,1456013994.4401035308837890625,46424
84,1456013994.49104642868041992188,46288
85,1456013994.54043436050415039062,46176
86,1456013994.58992981910705566406,46088
87,1456013994.64031815528869628906,46024
88,1456013994.68970394134521484375,45984
89,1456013994.74038934707641601562,45968
90,1456013994.78987812995910644531,45976
91,1456013994.8403720855712890625,46008
92,1456013994.88956117630004882812,46064
93,1456013994.94022321701049804688,46144
94,1456013994.98950409889221191406,46240
95,1456013995.04026889801025390625,46368
96,1456013995.08970475196838378906,46520
97,1456013995.14013385772705078125,46688
98,1456013995.18955850601196289062,46888
99,1456013995.2401485443115234375,47104
100,1456013995.28976273536682128906,47344
101,1456013995.33987665176391601562,47608
102,1456013995.39067244529724121094,47904
103,1456013995.44008851051330566406,48208
104,1456013995.48968815803527832031,48528
105,1456013995.54028797149658203125,48880
106,1456013995.58954119682312011719,49248
107,1456013995.64019417762756347656,49640
108,1456013995.68970060348510742188,50048
109,1456013995.74049973487854003906,50480
110,1456013995.79016447067260742188,50928
111,1456013995.83978915214538574219,51384
112,1456013995.89026641845703125,51872
113,1456013995.94012951850891113281,52368
114,1456013995.99086308479309082031,52888
115,1456013996.04042744636535644531,53416
116,1456013996.09000992774963378906,53960
117,1456013996.14041876792907714844,54520
118,1456013996.18997502326965332031,55088
119,1456013996.24062204360961914062,55688
120,1456013996.29045772552490234375,56280
121,1456013996.33988308906555175781,56880
122,1456013996.39051795005798339844,57512
123,1456013996.43993115425109863281,58136
124,1456013996.49053549766540527344,58776
125,1456013996.54027509689331054688,59424
126,1456013996.58970689773559570312,60072
127,1456013996.64045286178588867188,60744
128,1456013996.68994140625,61400
129,1456013996.74020671844482421875,62080
130,1456013996.789661407470703125,62752
131,1456013996.84029293060302734375,63440
132,1456013996.88968229293823242188,64112
133,1456013996.93984866142272949219,64800
134,1456013996.99063444137573242188,65496
135,1456013997.04025387763977050781,66176
136,1456013997.08997464179992675781,66864
137,1456013997.14043450355529785156,67552
138,1456013997.1900730133056640625,68224
139,1456013997.24069046974182128906,68912
140,1456013997.29039430618286132812,69584
141,1456013997.33978581428527832031,70248
142,1456013997.39020085334777832031,70912
143,1456013997.43983769416809082031,71568
144,1456013997.49047541618347167969,72224
145,1456013997.54031419754028320312,72864
146,1456013997.58974313735961914062,73496
147,1456013997.64037251472473144531,74128
148,1456013997.68989133834838867188,74736
149,1456013997.74066758155822753906,75344
150,1456013997.79025793075561523438,75928
151,1456013997.839557647705078125,76504
152,1456013997.89013886451721191406,77072
153,1456013997.939632415771484375,77616
154,1456013997.99043393135070800781,78168
155,1456013998.03996396064758300781,78680
156,1456013998.09059596061706542969,79192
157,1456013998.13997745513916015625,79672
158,1456013998.19050860404968261719,80152
159,1456013998.24007391929626464844,80600
160,1456013998.28942704200744628906,81032
161,1456013998.33985543251037597656,81448
162,1456013998.39020276069641113281,81848
163,1456013998.43988585472106933594,82224
164,1456013998.49044656753540039062,82592
165,1456013998.54018163681030273438,82920
166,1456013998.58940219879150390625,83232
167,1456013998.63976263999938964844,83528
168,1456013998.68975210189819335938,83800
169,1456013998.74031853675842285156,84056
170,1456013998.7901630401611328125,84288
171,1456013998.83942866325378417969,84488
172,1456013998.88999485969543457031,84672
173,1456013998.940380096435546875,84832
174,1456013998.99015474319458007812,84968
175,1456013999.03961682319641113281,85080
176,1456013999.09022998809814453125,85168
177,1456013999.13961172103881835938,85232
178,1456013999.19012236595153808594,85272
179,1456013999.24000668525695800781,85288
180,1456013999.28941655158996582031,85280
181,1456013999.33993577957153320312,85248
182,1456013999.39038252830505371094,85192
183,1456013999.44004058837890625,85120
184,1456013999.4905109405517578125,85016
185,1456013999.54007029533386230469,84888
186,1456013999.5894012451171875,84736
187,1456013999.63986277580261230469,84568
188,1456013999.68944096565246582031,84368
189,1456013999.74006295204162597656,84152
190,1456013999.78977131843566894531,83912
191,1456013999.84016728401184082031,83640
192,1456013999.89080858230590820312,83352
193,1456013999.94015765190124511719,83048
194,1456013999.98980951309204101562,82728
195,1456014000.04037570953369140625,82368
196,1456014000.08981466293334960938,82008
197,1456014000.1405086517333984375,81608
198,1456014000.18991518020629882812,81208
199,1456014000.24063634872436523438,80768
200,1456014000.29015350341796875,80328
201,1456014000.34050321578979492188,79864
202,1456014000.38983821868896484375,79384
203,1456014000.44049406051635742188,78880
204,1456014000.49010944366455078125,78368
205,1456014000.54042887687683105469,77840
206,1456014000.59008741378784179688,77296
207,1456014000.64055728912353515625,76728
208,1456014000.6901607513427734375,76160
209,1456014000.74058365821838378906,75568
210,1456014000.79019784927368164062,74976
211,1456014000.83935046195983886719,74376
212,1456014000.889835357666015625,73752
213,1456014000.94031262397766113281,73120
214,1456014000.98974967002868652344,72488
215,1456014001.03994226455688476562,71832
216,1456014001.09020066261291503906,71176
217,1456014001.13955187797546386719,70528
218,1456014001.18982744216918945312,69856
219,1456014001.24033808708190917969,69176
220,1456014001.28978705406188964844,68504
221,1456014001.34029531478881835938,67816
222,1456014001.38967680931091308594,67144
223,1456014001.44017124176025390625,66448
224,1456014001.48958420753479003906,65768
225,1456014001.53996610641479492188,65080
226,1456014001.59027647972106933594,64392
227,1456014001.63962125778198242188,63712
228,1456014001.69013333320617675781,63024
229,1456014001.74033498764038085938,62344
230,1456014001.78974890708923339844,61680
231,1456014001.84008526802062988281,61008
232,1456014001.89053869247436523438,60336
233,1456014001.94016385078430175781,59680
234,1456014001.9905147552490234375,59024
235,1456014002.04004025459289550781,58392
236,1456014002.09027862548828125,57752
237,1456014002.139812469482421875,57136
238,1456014002.19011831283569335938,56520
239,1456014002.24050045013427734375,55912
240,1456014002.289882659912109375,55328
241,1456014002.33979058265686035156,54752
242,1456014002.39046525955200195312,54176
243,1456014002.43987607955932617188,53632
244,1456014002.49034190177917480469,53096
245,1456014002.53961229324340820312,52576
246,1456014002.59017467498779296875,52072
247,1456014002.640533447265625,51576
248,1456014002.68999242782592773438,51112
249,1456014002.74022698402404785156,50656
250,1456014002.79051828384399414062,50216
251,1456014002.83999609947204589844,49800
252,1456014002.89044880867004394531,49400
253,1456014002.94003081321716308594,49032
254,1456014002.99030256271362304688,48672
255,1456014003.03987145423889160156,48336
256,1456014003.0902080535888671875,48016
257,1456014003.1398105621337890625,47728
258,1456014003.19016623497009277344,47448
259,1456014003.24019074440002441406,47200
260,1456014003.28947019577026367188,46976
261,1456014003.33976984024047851562,46768
262,1456014003.39039707183837890625,46584
263,1456014003.43982672691345214844,46424
264,1456014003.49046015739440917969,46288
265,1456014003.53975224494934082031,46176
266,1456014003.58991336822509765625,46088
267,1456014003.64033985137939453125,46024
268,1456014003.68969202041625976562,45984
269,1456014003.74006295204162597656,45968
270,1456014003.79032444953918457031,45976
271,1456014003.83997988700866699219,46008
272,1456014003.89039945602416992188,46064
273,1456014003.94007611274719238281,46136
274,1456014003.99041438102722167969,46240
275,1456014004.04012060165405273438,46368
276,1456014004.08962368965148925781,46520
277,1456014004.14003992080688476562,46688
278,1456014004.1896915435791015625,46888
279,1456014004.24017310142517089844,47104
280,1456014004.29053449630737304688,47352
281,1456014004.340129852294921875,47608
282,1456014004.3897304534912109375,47896
283,1456014004.44022965431213378906,48208
284,1456014004.48968505859375,48528
285,1456014004.5402088165283203125,48880
286,1456014004.58963227272033691406,49248
287,1456014004.640247344970703125,49640
288,1456014004.68986463546752929688,50048
289,1456014004.73954224586486816406,50472
290,1456014004.79012703895568847656,50928
291,1456014004.83976340293884277344,51384
292,1456014004.88990235328674316406,51872
293,1456014004.94063901901245117188,52376
294,1456014004.99013590812683105469,52888
295,1456014005.040485382080078125,53416
296,1456014005.09002518653869628906,53960
297,1456014005.14039015769958496094,54528
298,1456014005.19017076492309570312,55096
299,1456014005.23956584930419921875,55672
300,1456014005.29016637802124023438,56280
301,1456014005.33946347236633300781,56880
302,1456014005.39004158973693847656,57504
303,1456014005.44056606292724609375,58144
304,1456014005.48997402191162109375,58776
305,1456014005.54030752182006835938,59424
306,1456014005.58974957466125488281,60072
307,1456014005.64044141769409179688,60744
308,1456014005.68998956680297851562,61408
309,1456014005.74084019660949707031,62088
310,1456014005.79024052619934082031,62760
311,1456014005.83993697166442871094,63432
312,1456014005.89035201072692871094,64120
313,1456014005.9399013519287109375,64800
314,1456014005.98942399024963378906,65480
315,1456014006.03975629806518554688,66176
316,1456014006.09047722816467285156,66872
317,1456014006.13982439041137695312,67544
318,1456014006.19055771827697753906,68232
319,1456014006.24010443687438964844,68904
320,1456014006.28966355323791503906,69576
321,1456014006.34018445014953613281,70256
322,1456014006.38965559005737304688,70912
323,1456014006.44052338600158691406,71576
324,1456014006.49008202552795410156,72224
325,1456014006.53943109512329101562,72856
326,1456014006.58958959579467773438,73496
327,1456014006.6401691436767578125,74128
328,1456014006.68963527679443359375,74728
329,1456014006.740306854248046875,75344
330,1456014006.78981685638427734375,75928
331,1456014006.84030747413635253906,76512
332,1456014006.88993382453918457031,77072
333,1456014006.94043302536010742188,77624
334,1456014006.99005174636840820312,78160
335,1456014007.040386199951171875,78688
336,1456014007.08997774124145507812,79184
337,1456014007.14037108421325683594,79680
338,1456014007.19006681442260742188,80144
339,1456014007.23954749107360839844,80592
340,1456014007.28991460800170898438,81032
341,1456014007.33956217765808105469,81448
342,1456014007.38998174667358398438,81848
343,1456014007.43968319892883300781,82224
344,1456014007.4901905059814453125,82584
345,1456014007.5406665802001953125,82928
346,1456014007.59017086029052734375,83240
347,1456014007.63967227935791015625,83528
348,1456014007.69041204452514648438,83808
349,1456014007.74004411697387695312,84056
350,1456014007.78992986679077148438,84280
351,1456014007.84053206443786621094,84488
352,1456014007.89022541046142578125,84672
353,1456014007.93981957435607910156,84832
354,1456014007.99054670333862304688,84968
355,1456014008.03992533683776855469,85080
356,1456014008.09059619903564453125,85168
357,1456014008.14010524749755859375,85232
358,1456014008.18967986106872558594,85272
359,1456014008.24057054519653320312,85288
360,1456014008.29002451896667480469,85280
361,1456014008.33956384658813476562,85248
362,1456014008.3900165557861328125,85192
363,1456014008.44086813926696777344,85112
364,1456014008.49009656906127929688,85016
365,1456014008.54054498672485351562,84888
366,1456014008.58990001678466796875,84736
367,1456014008.64029574394226074219,84560
368,1456014008.68997454643249511719,84368
369,1456014008.74040007591247558594,84152
370,1456014008.78990101814270019531,83912
371,1456014008.84029316902160644531,83640
372,1456014008.88963580131530761719,83360
373,1456014008.94001603126525878906,83048
374,1456014008.99066376686096191406,82720
375,1456014009.03996801376342773438,82376
376,1456014009.09031009674072265625,82000
377,1456014009.13991236686706542969,81616
378,1456014009.19037795066833496094,81200
379,1456014009.24008011817932128906,80776
380,1456014009.28941178321838378906,80336
381,1456014009.34004878997802734375,79864
382,1456014009.39043259620666503906,79384
383,1456014009.44027471542358398438,78880
384,1456014009.48974752426147460938,78376
385,1456014009.54012656211853027344,77840
386,1456014009.58973813056945800781,77296
387,1456014009.64020061492919921875,76736
388,1456014009.69004750251770019531,76160
389,1456014009.7394542694091796875,75584
390,1456014009.79000306129455566406,74976
391,1456014009.84053564071655273438,74368
392,1456014009.88997387886047363281,73752
393,1456014009.94055891036987304688,73112
394,1456014009.98997354507446289062,72480
395,1456014010.04046344757080078125,71832
396,1456014010.08985757827758789062,71184
397,1456014010.14044284820556640625,70512
398,1456014010.19000697135925292969,69848
399,1456014010.23983311653137207031,69184
400,1456014010.29026103019714355469,68496
401,1456014010.33967280387878417969,67824
402,1456014010.39009070396423339844,67136
403,1456014010.44064688682556152344,66440
404,1456014010.49027109146118164062,65760
405,1456014010.53968572616577148438,65088
406,1456014010.59028840065002441406,64392
407,1456014010.63974142074584960938,63712
408,1456014010.69062685966491699219,63024
409,1456014010.74013471603393554688,62352
410,1456014010.78963422775268554688,61680
411,1456014010.84012365341186523438,61008
412,1456014010.889400482177734375,60352
413,1456014010.940036773681640625,59680
414,1456014010.99049663543701171875,59024
415,1456014011.04003667831420898438,58392
416,1456014011.0903072357177734375,57752
417,1456014011.13997006416320800781,57136
418,1456014011.19053030014038085938,56512
419,1456014011.24025273323059082031,55912
420,1456014011.28975915908813476562,55328
421,1456014011.34021210670471191406,54744
422,1456014011.38975191116333007812,54184
423,1456014011.44034147262573242188,53632
424,1456014011.48994970321655273438,53096
425,1456014011.54016327857971191406,52576
426,1456014011.59083223342895507812,52064
427,1456014011.63998270034790039062,51584
428,1456014011.69053769111633300781,51104
429,1456014011.73998236656188964844,50656
430,1456014011.79033398628234863281,50216
431,1456014011.83990693092346191406,49808
432,1456014011.89027333259582519531,49400
433,1456014011.94048213958740234375,49024
434,1456014011.98980236053466796875,48672
435,1456014012.04031515121459960938,48328
436,1456014012.08952093124389648438,48024
437,1456014012.13994526863098144531,47720
438,1456014012.19039750099182128906,47448
439,1456014012.23985600471496582031,47200
440,1456014012.29035925865173339844,46968
441,1456014012.33957695960998535156,46768
442,1456014012.38981294631958007812,46584
443,1456014012.44021391868591308594,46424
444,1456014012.49048113822937011719,46288
445,1456014012.53966784477233886719,46176
446,1456014012.59006905555725097656,46088
447,1456014012.64032721519470214844,46024
448,1456014012.68973755836486816406,45984
449,1456014012.74051523208618164062,45968
450,1456014012.78997111320495605469,45976
451,1456014012.83958268165588378906,46008
452,1456014012.8900699615478515625,46064
453,1456014012.94091010093688964844,46144
454,1456014012.99024152755737304688,46240
455,1456014013.04047107696533203125,46368
456,1456014013.08992743492126464844,46520
457,1456014013.1402950286865234375,46696
458,1456014013.19008517265319824219,46888
459,1456014013.24063634872436523438,47112
460,1456014013.29043436050415039062,47352
461,1456014013.33991885185241699219,47608
462,1456014013.39049696922302246094,47896
463,1456014013.44004154205322265625,48208
464,1456014013.49059200286865234375,48536
465,1456014013.53986859321594238281,48880
466,1456014013.59025144577026367188,49256
467,1456014013.63977789878845214844,49640
468,1456014013.69031667709350585938,50056
469,1456014013.74000883102416992188,50480
470,1456014013.7904415130615234375,50928
471,1456014013.84012699127197265625,51392
472,1456014013.89049291610717773438,51880
473,1456014013.94017124176025390625,52368
474,1456014013.9894237518310546875,52880
475,1456014014.03948140144348144531,53408
476,1456014014.09006834030151367188,53960
477,1456014014.14041638374328613281,54528
478,1456014014.19021701812744140625,55096
479,1456014014.23962807655334472656,55672
