id, time (s), size (bits)
0,1456013989.70072674751281738281,83856
1,1456013989.75071454048156738281,84104
2,1456013989.80144906044006347656,84336
3,1456013989.85129547119140625,84528
4,1456013989.90080046653747558594,84704
5,1456013989.95061707496643066406,84864
6,1456013990.00116777420043945312,84992
7,1456013990.05054354667663574219,85096
8,1456013990.101383209228515625,85184
9,1456013990.15087985992431640625,85240
10,1456013990.20064592361450195312,85280
11,1456013990.25119519233703613281,85288
12,1456013990.30106520652770996094,85280
13,1456013990.35070276260375976562,85240
14,1456013990.40135788917541503906,85176
15,1456013990.45112919807434082031,85096
16,1456013990.50066399574279785156,84992
17,1456013990.55058836936950683594,84856
18,1456013990.60117697715759277344,84704
19,1456013990.65092825889587402344,84520
20,1456013990.7005634307861328125,84328
21,1456013990.75126862525939941406,84096
22,1456013990.80091047286987304688,83856
23,1456013990.85064649581909179688,83584
24,1456013990.90122485160827636719,83296
25,1456013990.95096039772033691406,82984
26,1456013991.00088405609130859375,82648
27,1456013991.05029892921447753906,82296
28,1456013991.1010799407958984375,81920
29,1456013991.15048384666442871094,81528
30,1456013991.20135235786437988281,81112
31,1456013991.25090456008911132812,80680
32,1456013991.30055856704711914062,80232
33,1456013991.35134148597717285156,79760
34,1456013991.40081167221069335938,79280
35,1456013991.4508342742919921875,78776
36,1456013991.50143170356750488281,78248
37,1456013991.55107164382934570312,77720
38,1456013991.6004924774169921875,77176
39,1456013991.65115261077880859375,76608
40,1456013991.7008953094482421875,76040
41,1456013991.7504711151123046875,75456
42,1456013991.80118584632873535156,74848
43,1456013991.85080862045288085938,74240
44,1456013991.90060067176818847656,73616
45,1456013991.95131993293762207031,72976
46,1456013992.00110101699829101562,72336
47,1456013992.05049848556518554688,71696
48,1456013992.10124874114990234375,71032
49,1456013992.15077495574951171875,70376
50,1456013992.20180249214172363281,69696
51,1456013992.25025844573974609375,69040
52,1456013992.30086874961853027344,68352
53,1456013992.35067486763000488281,67672
54,1456013992.40116143226623535156,66984
55,1456013992.45107769966125488281,66304
56,1456013992.50067496299743652344,65616
57,1456013992.55126619338989257812,64928
58,1456013992.60081171989440917969,64248
59,1456013992.65152215957641601562,63552
60,1456013992.70130062103271484375,62872
61,1456013992.75088071823120117188,62200
62,1456013992.80071759223937988281,61528
63,1456013992.85134172439575195312,60856
64,1456013992.90101861953735351562,60200
65,1456013992.95105481147766113281,59536
66,1456013993.00084233283996582031,58896
67,1456013993.0512447357177734375,58248
68,1456013993.10102033615112304688,57616
69,1456013993.15050268173217773438,57000
70,1456013993.20119357109069824219,56384
71,1456013993.25100159645080566406,55784
72,1456013993.30052161216735839844,55208
73,1456013993.35132002830505371094,54616
74,1456013993.40087008476257324219,54064
75,1456013993.45068216323852539062,53520
76,1456013993.50133252143859863281,52976
77,1456013993.55106401443481445312,52464
78,1456013993.6007099151611328125,51968
79,1456013993.65121626853942871094,51472
80,1456013993.70115971565246582031,51008
81,1456013993.75079274177551269531,50560
82,1456013993.80044221878051757812,50128
83,1456013993.85048747062683105469,49720
84,1456013993.90166378021240234375,49320
85,1456013993.95051097869873046875,48952
86,1456013994.00159406661987304688,48592
87,1456013994.05103254318237304688,48264
88,1456013994.10130786895751953125,47952
89,1456013994.15076923370361328125,47664
90,1456013994.20120739936828613281,47392
91,1456013994.25064802169799804688,47152
92,1456013994.30094599723815917969,46928
93,1456013994.3515472412109375,46720
94,1456013994.400787353515625,46552
95,1456013994.45138120651245117188,46392
96,1456013994.50075006484985351562,46264
97,1456013994.55082178115844726562,46160
98,1456013994.60128331184387207031,46072
99,1456013994.65055561065673828125,46016
100,1456013994.70125675201416015625,45976
101,1456013994.75063824653625488281,45968
102,1456013994.80126929283142089844,45976
103,1456013994.85065722465515136719,46016
104,1456013994.90107631683349609375,46080
105,1456013994.95164847373962402344,46160
106,1456013995.0011196136474609375,46272
107,1456013995.05061197280883789062,46400
108,1456013995.10096311569213867188,46552
109,1456013995.15142726898193359375,46736
110,1456013995.20094656944274902344,46936
111,1456013995.25159978866577148438,47160
112,1456013995.30104398727416992188,47400
113,1456013995.35161900520324707031,47672
114,1456013995.40095400810241699219,47960
115,1456013995.45142793655395507812,48280
116,1456013995.50103116035461425781,48608
117,1456013995.55140185356140136719,48960
118,1456013995.60097336769104003906,49336
119,1456013995.65139055252075195312,49728
120,1456013995.70114827156066894531,50144
121,1456013995.75040125846862792969,50568
122,1456013995.80080199241638183594,51024
123,1456013995.85116910934448242188,51496
124,1456013995.90030813217163085938,51976
125,1456013995.95090174674987792969,52480
126,1456013996.0012950897216796875,53000
127,1456013996.05090022087097167969,53536
128,1456013996.10129714012145996094,54088
129,1456013996.15117383003234863281,54648
130,1456013996.2005062103271484375,55216
131,1456013996.25108480453491210938,55808
132,1456013996.30030322074890136719,56400
133,1456013996.35068368911743164062,57016
134,1456013996.4011936187744140625,57648
135,1456013996.45045709609985351562,58264
136,1456013996.50110149383544921875,58920
137,1456013996.55032014846801757812,59552
138,1456013996.600917816162109375,60216
139,1456013996.65124106407165527344,60888
140,1456013996.70070815086364746094,61552
141,1456013996.75114703178405761719,62232
142,1456013996.80028057098388671875,62896
143,1456013996.85086297988891601562,63584
144,1456013996.90120792388916015625,64272
145,1456013996.95079922676086425781,64952
146,1456013997.00124120712280273438,65640
147,1456013997.05071806907653808594,66320
148,1456013997.101284027099609375,67016
149,1456013997.15079903602600097656,67688
150,1456013997.20129132270812988281,68376
151,1456013997.25078296661376953125,69048
152,1456013997.301425933837890625,69736
153,1456013997.35101675987243652344,70392
154,1456013997.40081095695495605469,71056
155,1456013997.45117425918579101562,71720
156,1456013997.50172472000122070312,72376
157,1456013997.55105900764465332031,73008
158,1456013997.6017665863037109375,73648
159,1456013997.65119624137878417969,74256
160,1456013997.70052862167358398438,74864
161,1456013997.75122237205505371094,75472
162,1456013997.80044078826904296875,76048
163,1456013997.85122847557067871094,76632
164,1456013997.90075731277465820312,77192
165,1456013997.95126795768737792969,77744
166,1456013998.00054264068603515625,78272
167,1456013998.05105519294738769531,78792
168,1456013998.10148668289184570312,79296
169,1456013998.15082430839538574219,79776
170,1456013998.20148754119873046875,80248
171,1456013998.25092315673828125,80696
172,1456013998.30048394203186035156,81128
173,1456013998.35096645355224609375,81544
174,1456013998.40052175521850585938,81928
175,1456013998.45084261894226074219,82304
176,1456013998.50136065483093261719,82664
177,1456013998.55069136619567871094,82992
178,1456013998.60114598274230957031,83304
179,1456013998.65082430839538574219,83592
180,1456013998.70130705833435058594,83864
181,1456013998.75085878372192382812,84104
182,1456013998.80112051963806152344,84328
183,1456013998.85176897048950195312,84536
184,1456013998.90115618705749511719,84712
185,1456013998.95051288604736328125,84864
186,1456013999.00087833404541015625,84992
187,1456013999.05119609832763671875,85096
188,1456013999.10098385810852050781,85184
189,1456013999.15137076377868652344,85240
190,1456013999.20093202590942382812,85280
191,1456013999.25132465362548828125,85288
192,1456013999.30082988739013671875,85280
193,1456013999.35122847557067871094,85240
194,1456013999.40081572532653808594,85184
195,1456013999.45116543769836425781,85096
196,1456013999.50044155120849609375,84992
197,1456013999.55105113983154296875,84856
198,1456013999.60146355628967285156,84704
199,1456013999.65102505683898925781,84520
200,1456013999.70144963264465332031,84320
201,1456013999.75104522705078125,84096
202,1456013999.80137538909912109375,83848
203,1456013999.85113859176635742188,83584
204,1456013999.90062308311462402344,83296
205,1456013999.95096635818481445312,82984
206,1456014000.00038170814514160156,82656
207,1456014000.05088376998901367188,82296
208,1456014000.10052061080932617188,81928
209,1456014000.15092420578002929688,81528
210,1456014000.20156383514404296875,81112
211,1456014000.25096607208251953125,80680
212,1456014000.30161690711975097656,80224
213,1456014000.35116219520568847656,79760
214,1456014000.4006328582763671875,79280
215,1456014000.45113515853881835938,78776
216,1456014000.501384735107421875,78256
217,1456014000.55079388618469238281,77728
218,1456014000.60118365287780761719,77176
219,1456014000.65054297447204589844,76616
220,1456014000.70095801353454589844,76040
221,1456014000.75149750709533691406,75440
222,1456014000.80078959465026855469,74848
223,1456014000.85121178627014160156,74232
224,1456014000.90071272850036621094,73616
225,1456014000.95094990730285644531,72984
226,1456014001.00137948989868164062,72336
227,1456014001.05066943168640136719,71696
228,1456014001.10125374794006347656,71032
229,1456014001.15041327476501464844,70376
230,1456014001.20100688934326171875,69704
231,1456014001.25136590003967285156,69024
232,1456014001.30065226554870605469,68360
233,1456014001.35127329826354980469,67664
234,1456014001.40045571327209472656,66992
235,1456014001.45080542564392089844,66304
236,1456014001.50100922584533691406,65616
237,1456014001.5513668060302734375,64928
238,1456014001.60065913200378417969,64248
239,1456014001.65128183364868164062,63560
240,1456014001.70045042037963867188,62888
241,1456014001.75071048736572265625,62208
242,1456014001.80121922492980957031,61528
243,1456014001.85057020187377929688,60864
244,1456014001.90116930007934570312,60192
245,1456014001.95039224624633789062,59552
246,1456014002.00108671188354492188,58888
247,1456014002.05031609535217285156,58256
248,1456014002.10102772712707519531,57616
249,1456014002.15029954910278320312,57008
250,1456014002.20060992240905761719,56392
251,1456014002.25117969512939453125,55784
252,1456014002.30038952827453613281,55208
253,1456014002.35104799270629882812,54624
254,1456014002.40145778656005859375,54056
255,1456014002.45108175277709960938,53512
256,1456014002.50138735771179199219,52976
257,1456014002.55074620246887207031,52464
258,1456014002.60125494003295898438,51960
259,1456014002.65064144134521484375,51480
260,1456014002.70121669769287109375,51008
261,1456014002.75046563148498535156,50560
262,1456014002.80089497566223144531,50128
263,1456014002.85135865211486816406,49712
264,1456014002.90094614028930664062,49320
265,1456014002.95109868049621582031,48944
266,1456014003.00150299072265625,48592
267,1456014003.05069828033447265625,48264
268,1456014003.10105919837951660156,47952
269,1456014003.15038633346557617188,47664
270,1456014003.20065569877624511719,47392
271,1456014003.251129150390625,47144
272,1456014003.30129456520080566406,46928
273,1456014003.35073256492614746094,46728
274,1456014003.40102624893188476562,46552
275,1456014003.451335906982421875,46392
276,1456014003.50041675567626953125,46264
277,1456014003.5506038665771484375,46160
278,1456014003.60119175910949707031,46072
279,1456014003.6503353118896484375,46016
280,1456014003.70079517364501953125,45976
281,1456014003.75106096267700195312,45968
282,1456014003.80148363113403320312,45976
283,1456014003.85094165802001953125,46016
284,1456014003.90152096748352050781,46080
285,1456014003.95086073875427246094,46160
286,1456014004.00118970870971679688,46272
287,1456014004.05078387260437011719,46400
288,1456014004.10131859779357910156,46552
289,1456014004.15097403526306152344,46728
290,1456014004.20141100883483886719,46936
291,1456014004.2510242462158203125,47160
292,1456014004.30130815505981445312,47408
293,1456014004.35081720352172851562,47672
294,1456014004.40128397941589355469,47960
295,1456014004.45059871673583984375,48272
296,1456014004.5010833740234375,48608
297,1456014004.55146098136901855469,48968
298,1456014004.60127305984497070312,49336
299,1456014004.65068697929382324219,49728
300,1456014004.70128846168518066406,50144
301,1456014004.75057673454284667969,50568
302,1456014004.80102968215942382812,51024
303,1456014004.85156607627868652344,51496
304,1456014004.90103769302368164062,51976
305,1456014004.95042967796325683594,52472
306,1456014005.00080561637878417969,53000
307,1456014005.05140352249145507812,53536
308,1456014005.10094690322875976562,54080
309,1456014005.1515789031982421875,54648
310,1456014005.2009735107421875,55216
311,1456014005.25162005424499511719,55816
312,1456014005.30090260505676269531,56408
313,1456014005.35131120681762695312,57024
314,1456014005.40096282958984375,57640
315,1456014005.45131349563598632812,58280
316,1456014005.50097298622131347656,58912
317,1456014005.55134487152099609375,59568
318,1456014005.60112309455871582031,60224
319,1456014005.65047144889831542969,60872
320,1456014005.70107865333557128906,61552
321,1456014005.75152826309204101562,62232
322,1456014005.8009033203125,62904
323,1456014005.85171222686767578125,63592
324,1456014005.90117621421813964844,64272
325,1456014005.95082807540893554688,64952
326,1456014006.00121307373046875,65640
327,1456014006.0508480072021484375,66320
328,1456014006.10134625434875488281,67016
329,1456014006.15081357955932617188,67696
330,1456014006.20128464698791503906,68376
331,1456014006.25071954727172851562,69048
332,1456014006.30148553848266601562,69736
333,1456014006.35107350349426269531,70400
334,1456014006.40069794654846191406,71056
335,1456014006.45106816291809082031,71712
336,1456014006.50153446197509765625,72368
337,1456014006.55080556869506835938,73000
338,1456014006.60144567489624023438,73640
339,1456014006.65085506439208984375,74256
340,1456014006.70121884346008300781,74872
341,1456014006.75085186958312988281,75464
342,1456014006.8012027740478515625,76056
343,1456014006.85087132453918457031,76632
344,1456014006.90128803253173828125,77200
345,1456014006.95090460777282714844,77744
346,1456014007.00129675865173339844,78280
347,1456014007.05084705352783203125,78792
348,1456014007.10140228271484375,79296
349,1456014007.15083193778991699219,79776
350,1456014007.20037126541137695312,80240
351,1456014007.25081801414489746094,80696
352,1456014007.30138444900512695312,81136
353,1456014007.35084986686706542969,81544
354,1456014007.40152215957641601562,81936
355,1456014007.45096898078918457031,82304
356,1456014007.50168561935424804688,82664
357,1456014007.55112218856811523438,82992
358,1456014007.60032916069030761719,83304
359,1456014007.65124917030334472656,83592
360,1456014007.70027709007263183594,83856
361,1456014007.75072598457336425781,84104
362,1456014007.8010406494140625,84328
363,1456014007.85045623779296875,84528
364,1456014007.90099167823791503906,84704
365,1456014007.95162057876586914062,84864
366,1456014008.00107550621032714844,84992
367,1456014008.05038213729858398438,85096
368,1456014008.10090804100036621094,85184
369,1456014008.15140843391418457031,85240
370,1456014008.20101904869079589844,85280
371,1456014008.25137162208557128906,85288
372,1456014008.30097079277038574219,85280
373,1456014008.35130167007446289062,85240
374,1456014008.401126861572265625,85176
375,1456014008.45040607452392578125,85096
376,1456014008.50080847740173339844,84992
377,1456014008.55136919021606445312,84856
378,1456014008.60066747665405273438,84704
379,1456014008.65132069587707519531,84520
380,1456014008.7007598876953125,84320
381,1456014008.75128197669982910156,84096
382,1456014008.80049300193786621094,83856
383,1456014008.85124039649963378906,83584
384,1456014008.90063786506652832031,83296
385,1456014008.951019287109375,82984
386,1456014009.00051283836364746094,82648
387,1456014009.05092072486877441406,82296
388,1456014009.10028767585754394531,81928
389,1456014009.15063548088073730469,81528
390,1456014009.20127534866333007812,81112
391,1456014009.25062108039855957031,80688
392,1456014009.30121946334838867188,80232
393,1456014009.35055375099182128906,79768
394,1456014009.40104842185974121094,79272
395,1456014009.45062899589538574219,78776
396,1456014009.50099253654479980469,78256
397,1456014009.55041766166687011719,77728
398,1456014009.60069823265075683594,77176
399,1456014009.65133023262023925781,76608
400,1456014009.70079064369201660156,76040
401,1456014009.75131916999816894531,75440
402,1456014009.80067014694213867188,74848
403,1456014009.851024627685546875,74232
404,1456014009.90062618255615234375,73616
405,1456014009.95102405548095703125,72984
406,1456014010.00043034553527832031,72344
407,1456014010.05083990097045898438,71696
408,1456014010.10125637054443359375,71032
409,1456014010.15046143531799316406,70376
410,1456014010.20095491409301757812,69704
411,1456014010.25120282173156738281,69024
412,1456014010.30147051811218261719,68344
413,1456014010.35087561607360839844,67672
414,1456014010.40125155448913574219,66984
415,1456014010.45071196556091308594,66304
416,1456014010.50095129013061523438,65616
417,1456014010.55150651931762695312,64920
418,1456014010.6007862091064453125,64248
419,1456014010.65133190155029296875,63552
420,1456014010.70066022872924804688,62880
421,1456014010.75086307525634765625,62200
422,1456014010.80125355720520019531,61528
423,1456014010.85033464431762695312,60872
424,1456014010.90088176727294921875,60200
425,1456014010.95114636421203613281,59536
426,1456014011.00171351432800292969,58880
427,1456014011.05101704597473144531,58248
428,1456014011.10140275955200195312,57616
429,1456014011.15083837509155273438,57000
430,1456014011.20118403434753417969,56384
431,1456014011.25065708160400390625,55792
432,1456014011.30090451240539550781,55200
433,1456014011.35127806663513183594,54624
434,1456014011.40052151679992675781,54064
435,1456014011.45110726356506347656,53512
436,1456014011.50144362449645996094,52976
437,1456014011.55089354515075683594,52464
438,1456014011.60112214088439941406,51960
439,1456014011.65152239799499511719,51472
440,1456014011.70101141929626464844,51008
441,1456014011.75128149986267089844,50560
442,1456014011.80072236061096191406,50128
443,1456014011.850910186767578125,49712
444,1456014011.90154767036437988281,49320
445,1456014011.95079827308654785156,48952
446,1456014012.00121665000915527344,48592
447,1456014012.05041003227233886719,48264
448,1456014012.10064792633056640625,47952
449,1456014012.15122580528259277344,47664
450,1456014012.20039820671081542969,47400
451,1456014012.25095796585083007812,47152
452,1456014012.301227569580078125,46928
453,1456014012.35047364234924316406,46728
454,1456014012.40084147453308105469,46552
455,1456014012.45129799842834472656,46392
456,1456014012.50045347213745117188,46264
457,1456014012.55070185661315917969,46160
458,1456014012.60120320320129394531,46072
459,1456014012.65050959587097167969,46016
460,1456014012.70110368728637695312,45976
461,1456014012.75134396553039550781,45968
462,1456014012.80067300796508789062,45976
463,1456014012.85094141960144042969,46016
464,1456014012.90153813362121582031,46080
465,1456014012.95087361335754394531,46160
466,1456014013.00126719474792480469,46272
467,1456014013.05083680152893066406,46400
468,1456014013.10117983818054199219,46552
469,1456014013.15096354484558105469,46728
470,1456014013.20140790939331054688,46936
471,1456014013.251003265380859375,47160
472,1456014013.30159807205200195312,47408
473,1456014013.35107350349426269531,47672
474,1456014013.40160250663757324219,47968
475,1456014013.45107722282409667969,48272
476,1456014013.50056576728820800781,48608
477,1456014013.55094289779663085938,48960
478,1456014013.60037636756896972656,49328
479,1456014013.65076780319213867188,49728
