id, time (s), size (bits)
0,1456013989.57216572761535644531,83128
1,1456013989.62105560302734375,83424
2,1456013989.67145967483520507812,83704
3,1456013989.72088694572448730469,83960
4,1456013989.771228790283203125,84200
5,1456013989.82178425788879394531,84416
6,1456013989.87120294570922851562,84608
7,1456013989.92152523994445800781,84776
8,1456013989.97121453285217285156,84920
9,1456013990.02157616615295410156,85040
10,1456013990.07108211517333984375,85136
11,1456013990.121387481689453125,85208
12,1456013990.17186737060546875,85256
13,1456013990.22118639945983886719,85288
14,1456013990.2717494964599609375,85288
15,1456013990.32127928733825683594,85264
16,1456013990.37168288230895996094,85216
17,1456013990.42144727706909179688,85152
18,1456013990.47181200981140136719,85056
19,1456013990.52145242691040039062,84936
20,1456013990.57086610794067382812,84800
21,1456013990.62159061431884765625,84632
22,1456013990.67108988761901855469,84448
23,1456013990.72182798385620117188,84232
24,1456013990.77130198478698730469,84000
25,1456013990.82165861129760742188,83744
26,1456013990.87133550643920898438,83472
27,1456013990.92166304588317871094,83168
28,1456013990.97124814987182617188,82848
29,1456013991.0217151641845703125,82504
30,1456013991.07130718231201171875,82144
31,1456013991.12169504165649414062,81760
32,1456013991.17116904258728027344,81360
33,1456013991.22168612480163574219,80936
34,1456013991.27099776268005371094,80504
35,1456013991.32170939445495605469,80040
36,1456013991.3711261749267578125,79568
37,1456013991.42163848876953125,79072
38,1456013991.47099161148071289062,78568
39,1456013991.52154898643493652344,78040
40,1456013991.57078862190246582031,77504
41,1456013991.62125873565673828125,76944
42,1456013991.67166829109191894531,76376
43,1456013991.72102713584899902344,75800
44,1456013991.77166962623596191406,75200
45,1456013991.82104349136352539062,74600
46,1456013991.87174654006958007812,73976
47,1456013991.92123341560363769531,73360
48,1456013991.971912384033203125,72712
49,1456013992.0214252471923828125,72080
50,1456013992.07097864151000976562,71432
51,1456013992.12143158912658691406,70768
52,1456013992.17177605628967285156,70096
53,1456013992.22128796577453613281,69432
54,1456013992.27162384986877441406,68752
55,1456013992.32124161720275878906,68080
56,1456013992.37166714668273925781,67384
57,1456013992.4211788177490234375,66712
58,1456013992.47151064872741699219,66016
59,1456013992.52099299430847167969,65344
60,1456013992.57141900062561035156,64648
61,1456013992.62174868583679199219,63960
62,1456013992.67128443717956542969,63280
63,1456013992.72161912918090820312,62600
64,1456013992.77113485336303710938,61928
65,1456013992.82183003425598144531,61248
66,1456013992.87140393257141113281,60584
67,1456013992.92177534103393554688,59920
68,1456013992.97133135795593261719,59272
69,1456013993.02175283432006835938,58624
70,1456013993.0710735321044921875,58000
71,1456013993.12160444259643554688,57360
72,1456013993.17082452774047851562,56752
73,1456013993.22146677970886230469,56136
74,1456013993.27077174186706542969,55552
75,1456013993.32142305374145507812,54960
76,1456013993.37072205543518066406,54400
77,1456013993.42140221595764160156,53840
78,1456013993.47073531150817871094,53304
79,1456013993.52131342887878417969,52768
80,1456013993.57087373733520507812,52264
81,1456013993.62127709388732910156,51760
82,1456013993.67185354232788085938,51280
83,1456013993.72132754325866699219,50824
84,1456013993.77218580245971679688,50376
85,1456013993.82175731658935546875,49952
86,1456013993.87204146385192871094,49544
87,1456013993.92178273200988769531,49160
88,1456013993.97136688232421875,48800
89,1456013994.02124333381652832031,48456
90,1456013994.07148408889770507812,48136
91,1456013994.12164783477783203125,47832
92,1456013994.17175769805908203125,47544
93,1456013994.22211623191833496094,47288
94,1456013994.27114796638488769531,47056
95,1456013994.32128095626831054688,46840
96,1456013994.37139725685119628906,46648
97,1456013994.42145490646362304688,46480
98,1456013994.47171807289123535156,46336
99,1456013994.52182650566101074219,46216
100,1456013994.57108044624328613281,46120
101,1456013994.62113809585571289062,46048
102,1456013994.67152523994445800781,46000
103,1456013994.72174143791198730469,45968
104,1456013994.77096891403198242188,45968
105,1456013994.82110905647277832031,45992
106,1456013994.8713321685791015625,46040
107,1456013994.92166471481323242188,46104
108,1456013994.97173905372619628906,46200
109,1456013995.0209980010986328125,46320
110,1456013995.07118105888366699219,46456
111,1456013995.12158656120300292969,46624
112,1456013995.17166209220886230469,46816
113,1456013995.22196078300476074219,47024
114,1456013995.27111768722534179688,47256
115,1456013995.32121944427490234375,47512
116,1456013995.37156462669372558594,47792
117,1456013995.42169404029846191406,48088
118,1456013995.47087764739990234375,48408
119,1456013995.52101874351501464844,48744
120,1456013995.57163906097412109375,49112
121,1456013995.62200880050659179688,49496
122,1456013995.671451568603515625,49896
123,1456013995.72170591354370117188,50320
124,1456013995.77072691917419433594,50752
125,1456013995.82103800773620605469,51208
126,1456013995.87120938301086425781,51688
127,1456013995.92161488533020019531,52184
128,1456013995.97177815437316894531,52696
129,1456013996.02164745330810546875,53216
130,1456013996.07186913490295410156,53760
131,1456013996.12116861343383789062,54304
132,1456013996.17126750946044921875,54880
133,1456013996.2214756011962890625,55456
134,1456013996.27191710472106933594,56056
135,1456013996.32113909721374511719,56656
136,1456013996.37153673171997070312,57272
137,1456013996.42168426513671875,57904
138,1456013996.47206640243530273438,58544
139,1456013996.52122783660888671875,59176
140,1456013996.57148623466491699219,59832
141,1456013996.62167286872863769531,60496
142,1456013996.67176723480224609375,61160
143,1456013996.72107052803039550781,61824
144,1456013996.77120232582092285156,62504
145,1456013996.82165741920471191406,63184
146,1456013996.8718204498291015625,63872
147,1456013996.92107033729553222656,64544
148,1456013996.97117209434509277344,65232
149,1456013997.02154493331909179688,65920
150,1456013997.07186222076416015625,66608
151,1456013997.12098717689514160156,67288
152,1456013997.17146563529968261719,67976
153,1456013997.22170567512512207031,68656
154,1456013997.27124547958374023438,69328
155,1456013997.32156276702880859375,70000
156,1456013997.37202906608581542969,70672
157,1456013997.4212627410888671875,71328
158,1456013997.47162652015686035156,71984
159,1456013997.52194309234619140625,72632
160,1456013997.57111883163452148438,73256
161,1456013997.6214923858642578125,73888
162,1456013997.67170000076293945312,74512
163,1456013997.72119832038879394531,75112
164,1456013997.77143502235412597656,75712
165,1456013997.821880340576171875,76296
166,1456013997.871082305908203125,76856
167,1456013997.92149758338928222656,77416
168,1456013997.97174501419067382812,77968
169,1456013998.02191448211669921875,78496
170,1456013998.07135105133056640625,79000
171,1456013998.12152099609375,79496
172,1456013998.17077922821044921875,79968
173,1456013998.22078084945678710938,80424
174,1456013998.27099299430847167969,80872
175,1456013998.32125520706176757812,81296
176,1456013998.37152552604675292969,81704
177,1456013998.42167878150939941406,82088
178,1456013998.47184014320373535156,82456
179,1456013998.52129101753234863281,82800
180,1456013998.5714778900146484375,83120
181,1456013998.62077665328979492188,83424
182,1456013998.67083787918090820312,83704
183,1456013998.72102260589599609375,83960
184,1456013998.77122664451599121094,84200
185,1456013998.82154989242553710938,84416
186,1456013998.87172269821166992188,84608
187,1456013998.92180085182189941406,84776
188,1456013998.97121071815490722656,84920
189,1456013999.02147340774536132812,85040
190,1456013999.07184767723083496094,85136
191,1456013999.12093424797058105469,85208
192,1456013999.17128062248229980469,85256
193,1456013999.22141408920288085938,85288
194,1456013999.27166533470153808594,85288
195,1456013999.32186341285705566406,85264
196,1456013999.37075924873352050781,85216
197,1456013999.42117786407470703125,85152
198,1456013999.47135996818542480469,85056
199,1456013999.52176451683044433594,84936
200,1456013999.57079434394836425781,84800
201,1456013999.62096571922302246094,84632
202,1456013999.67113900184631347656,84448
203,1456013999.72157573699951171875,84232
204,1456013999.77177333831787109375,84000
205,1456013999.82085275650024414062,83752
206,1456013999.87120962142944335938,83472
207,1456013999.92134046554565429688,83168
208,1456013999.97167444229125976562,82848
209,1456014000.02072596549987792969,82512
210,1456014000.07201671600341796875,82136
211,1456014000.12114453315734863281,81760
212,1456014000.17148804664611816406,81360
213,1456014000.22169470787048339844,80936
214,1456014000.27180171012878417969,80496
215,1456014000.321178436279296875,80040
216,1456014000.37132954597473144531,79568
217,1456014000.42161607742309570312,79072
218,1456014000.47168016433715820312,78560
219,1456014000.52196907997131347656,78032
220,1456014000.57115268707275390625,77504
221,1456014000.62162280082702636719,76944
222,1456014000.67185449600219726562,76376
223,1456014000.72092914581298828125,75800
224,1456014000.77120375633239746094,75208
225,1456014000.82130551338195800781,74600
226,1456014000.87155699729919433594,73984
227,1456014000.92154717445373535156,73352
228,1456014000.97177934646606445312,72712
229,1456014001.02084851264953613281,72080
230,1456014001.07105493545532226562,71432
231,1456014001.12114834785461425781,70768
232,1456014001.17118048667907714844,70104
233,1456014001.22146153450012207031,69424
234,1456014001.27148008346557617188,68752
235,1456014001.32169365882873535156,68072
236,1456014001.37180304527282714844,67384
237,1456014001.42202138900756835938,66696
238,1456014001.47100353240966796875,66024
239,1456014001.52135062217712402344,65336
240,1456014001.57146239280700683594,64648
241,1456014001.62162470817565917969,63960
242,1456014001.67087078094482421875,63288
243,1456014001.72078442573547363281,62608
244,1456014001.77082109451293945312,61936
245,1456014001.82089757919311523438,61264
246,1456014001.87142634391784667969,60584
247,1456014001.92172741889953613281,59920
248,1456014001.97090435028076171875,59280
249,1456014002.02119779586791992188,58632
250,1456014002.07141065597534179688,57992
251,1456014002.12174487113952636719,57360
252,1456014002.17183852195739746094,56744
253,1456014002.22108721733093261719,56144
254,1456014002.27124118804931640625,55544
255,1456014002.3217449188232421875,54960
256,1456014002.37085771560668945312,54400
257,1456014002.42102599143981933594,53840
258,1456014002.47118210792541503906,53296
259,1456014002.52138280868530273438,52768
260,1456014002.57173633575439453125,52256
261,1456014002.6207294464111328125,51768
262,1456014002.67085099220275878906,51288
263,1456014002.72092938423156738281,50824
264,1456014002.77136325836181640625,50384
265,1456014002.82151484489440917969,49952
266,1456014002.87189316749572753906,49544
267,1456014002.92102718353271484375,49168
268,1456014002.97086119651794433594,48808
269,1456014003.02102994918823242188,48456
270,1456014003.07106113433837890625,48136
271,1456014003.12125325202941894531,47832
272,1456014003.17121529579162597656,47552
273,1456014003.22155928611755371094,47288
274,1456014003.2716388702392578125,47056
275,1456014003.32176446914672851562,46840
276,1456014003.37175750732421875,46648
277,1456014003.42175817489624023438,46480
278,1456014003.47081542015075683594,46336
279,1456014003.52180385589599609375,46216
280,1456014003.57086181640625,46120
281,1456014003.62075877189636230469,46048
282,1456014003.67201590538024902344,46000
283,1456014003.72110414505004882812,45968
284,1456014003.771274566650390625,45968
285,1456014003.82132244110107421875,45992
286,1456014003.87130808830261230469,46040
287,1456014003.92172336578369140625,46112
288,1456014003.97190046310424804688,46200
289,1456014004.02140831947326660156,46320
290,1456014004.07163691520690917969,46464
291,1456014004.12196493148803710938,46624
292,1456014004.171085357666015625,46808
293,1456014004.22133684158325195312,47024
294,1456014004.27145433425903320312,47256
295,1456014004.32159757614135742188,47512
296,1456014004.37183094024658203125,47792
297,1456014004.42083978652954101562,48080
298,1456014004.47128820419311523438,48408
299,1456014004.52140522003173828125,48752
300,1456014004.57174754142761230469,49112
301,1456014004.62083005905151367188,49488
302,1456014004.67094206809997558594,49896
303,1456014004.72112202644348144531,50312
304,1456014004.77123117446899414062,50752
305,1456014004.82158780097961425781,51216
306,1456014004.87170100212097167969,51696
307,1456014004.92107081413269042969,52176
308,1456014004.97119450569152832031,52688
309,1456014005.02151656150817871094,53216
310,1456014005.07162404060363769531,53760
311,1456014005.1219425201416015625,54312
312,1456014005.1711273193359375,54872
313,1456014005.22123551368713378906,55456
314,1456014005.27148747444152832031,56056
315,1456014005.32169198989868164062,56664
316,1456014005.37086462974548339844,57264
317,1456014005.42198038101196289062,57904
318,1456014005.47138166427612304688,58536
319,1456014005.52167606353759765625,59184
320,1456014005.57218122482299804688,59840
321,1456014005.62155318260192871094,60488
322,1456014005.67190265655517578125,61160
323,1456014005.72137331962585449219,61824
324,1456014005.7716197967529296875,62504
325,1456014005.82100343704223632812,63176
326,1456014005.87123203277587890625,63864
327,1456014005.92171359062194824219,64552
328,1456014005.97092676162719726562,65224
329,1456014006.02138781547546386719,65920
330,1456014006.07164716720581054688,66608
331,1456014006.12186527252197265625,67296
332,1456014006.17136859893798828125,67976
333,1456014006.22159719467163085938,68656
334,1456014006.27191281318664550781,69336
335,1456014006.321186065673828125,69992
336,1456014006.37163448333740234375,70672
337,1456014006.42175626754760742188,71336
338,1456014006.47205710411071777344,71992
339,1456014006.52130961418151855469,72624
340,1456014006.57150244712829589844,73264
341,1456014006.6208667755126953125,73880
342,1456014006.67096352577209472656,74504
343,1456014006.72139286994934082031,75112
344,1456014006.77162885665893554688,75712
345,1456014006.82207727432250976562,76304
346,1456014006.87137055397033691406,76864
347,1456014006.92175817489624023438,77424
348,1456014006.97087073326110839844,77952
349,1456014007.02107524871826171875,78488
350,1456014007.07169413566589355469,79000
351,1456014007.12193727493286132812,79496
352,1456014007.17140460014343261719,79968
353,1456014007.22165131568908691406,80432
354,1456014007.272003173828125,80880
355,1456014007.32134199142456054688,81296
356,1456014007.37178087234497070312,81704
357,1456014007.42098736763000488281,82088
358,1456014007.47121310234069824219,82456
359,1456014007.52189230918884277344,82800
360,1456014007.57122874259948730469,83120
361,1456014007.62164425849914550781,83424
362,1456014007.6718807220458984375,83712
363,1456014007.72136092185974121094,83968
364,1456014007.77162218093872070312,84200
365,1456014007.82215118408203125,84416
366,1456014007.87149310111999511719,84608
367,1456014007.921764373779296875,84776
368,1456014007.97115659713745117188,84920
369,1456014008.02142429351806640625,85040
370,1456014008.07182788848876953125,85136
371,1456014008.12090730667114257812,85208
372,1456014008.17120695114135742188,85256
373,1456014008.22138929367065429688,85288
374,1456014008.27183961868286132812,85288
375,1456014008.32114529609680175781,85264
376,1456014008.3713207244873046875,85216
377,1456014008.42176961898803710938,85144
378,1456014008.47177886962890625,85056
379,1456014008.52081131935119628906,84936
380,1456014008.57187342643737792969,84792
381,1456014008.62101340293884277344,84632
382,1456014008.67093753814697265625,84448
383,1456014008.72124743461608886719,84232
384,1456014008.77135038375854492188,84000
385,1456014008.82141256332397460938,83744
386,1456014008.87175846099853515625,83464
387,1456014008.92182803153991699219,83168
388,1456014008.97087407112121582031,82848
389,1456014009.02090859413146972656,82512
390,1456014009.071300506591796875,82144
391,1456014009.12136721611022949219,81760
392,1456014009.17171311378479003906,81360
393,1456014009.22182035446166992188,80936
394,1456014009.27075982093811035156,80504
395,1456014009.32082056999206542969,80048
396,1456014009.3718280792236328125,79560
397,1456014009.42102956771850585938,79080
398,1456014009.47105836868286132812,78568
399,1456014009.521320343017578125,78040
400,1456014009.57140755653381347656,77504
401,1456014009.62179398536682128906,76944
402,1456014009.67082309722900390625,76384
403,1456014009.72189068794250488281,75792
404,1456014009.77111721038818359375,75208
405,1456014009.82118082046508789062,74600
406,1456014009.87140727043151855469,73984
407,1456014009.92147374153137207031,73352
408,1456014009.97178483009338378906,72712
409,1456014010.02181243896484375,72072
410,1456014010.07207822799682617188,71416
411,1456014010.12111735343933105469,70768
412,1456014010.17107915878295898438,70104
413,1456014010.22126889228820800781,69432
414,1456014010.27136564254760742188,68752
415,1456014010.32161545753479003906,68072
416,1456014010.37166452407836914062,67392
417,1456014010.42199921607971191406,66696
418,1456014010.47105360031127929688,66024
419,1456014010.52127718925476074219,65336
420,1456014010.57149267196655273438,64648
421,1456014010.62170958518981933594,63960
422,1456014010.67094707489013671875,63288
423,1456014010.72110629081726074219,62608
424,1456014010.77136707305908203125,61928
425,1456014010.8214111328125,61256
426,1456014010.87179660797119140625,60584
427,1456014010.92085123062133789062,59936
428,1456014010.97096276283264160156,59280
429,1456014011.02099108695983886719,58632
430,1456014011.07090878486633300781,58000
431,1456014011.1211910247802734375,57368
432,1456014011.17122435569763183594,56752
433,1456014011.22146177291870117188,56136
434,1456014011.27162480354309082031,55544
435,1456014011.32215237617492675781,54952
436,1456014011.37135839462280273438,54392
437,1456014011.42164373397827148438,53832
438,1456014011.4718036651611328125,53288
439,1456014011.52083468437194824219,52776
440,1456014011.57115483283996582031,52256
441,1456014011.621334075927734375,51760
442,1456014011.67166972160339355469,51280
443,1456014011.721767425537109375,50816
444,1456014011.77224087715148925781,50376
445,1456014011.82145786285400390625,49960
446,1456014011.87178397178649902344,49552
447,1456014011.92086315155029296875,49168
448,1456014011.97088861465454101562,48808
449,1456014012.02129411697387695312,48456
450,1456014012.0715045928955078125,48136
451,1456014012.12083864212036132812,47832
452,1456014012.1708965301513671875,47552
453,1456014012.22112226486206054688,47296
454,1456014012.27125239372253417969,47056
455,1456014012.32151913642883300781,46840
456,1456014012.37164330482482910156,46648
457,1456014012.42164969444274902344,46480
458,1456014012.47081208229064941406,46336
459,1456014012.52184367179870605469,46216
460,1456014012.57114529609680175781,46120
461,1456014012.62113451957702636719,46048
462,1456014012.67139649391174316406,46000
463,1456014012.72154569625854492188,45968
464,1456014012.77188873291015625,45968
465,1456014012.82092642784118652344,45992
466,1456014012.87088656425476074219,46040
467,1456014012.92121767997741699219,46104
468,1456014012.97136569023132324219,46200
469,1456014013.02172136306762695312,46320
470,1456014013.07184720039367675781,46464
471,1456014013.12099623680114746094,46624
472,1456014013.17117905616760253906,46808
473,1456014013.22139596939086914062,47024
474,1456014013.27167820930480957031,47256
475,1456014013.321918487548828125,47512
476,1456014013.37131977081298828125,47784
477,1456014013.42144370079040527344,48088
478,1456014013.47188448905944824219,48408
479,1456014013.52095365524291992188,48744
