id, time (s), size (bits)
0,1456013988.6648120880126953125,74424
1,1456013988.7147769927978515625,75040
2,1456013988.76525712013244628906,75640
3,1456013988.81484460830688476562,76216
4,1456013988.86526703834533691406,76792
5,1456013988.91483569145202636719,77344
6,1456013988.96540069580078125,77896
7,1456013989.01470732688903808594,78416
8,1456013989.0654659271240234375,78944
9,1456013989.11481142044067382812,79432
10,1456013989.16548752784729003906,79920
11,1456013989.21484279632568359375,80376
12,1456013989.2654781341552734375,80824
13,1456013989.31475949287414550781,81248
14,1456013989.36521434783935546875,81656
15,1456013989.41462469100952148438,82040
16,1456013989.46492075920104980469,82408
17,1456013989.51479458808898925781,82752
18,1456013989.56521701812744140625,83088
19,1456013989.61479735374450683594,83384
20,1456013989.66520595550537109375,83672
21,1456013989.71460676193237304688,83928
22,1456013989.76494574546813964844,84168
23,1456013989.81565380096435546875,84392
24,1456013989.86513686180114746094,84584
25,1456013989.91443371772766113281,84752
26,1456013989.96512341499328613281,84904
27,1456013990.01438593864440917969,85024
28,1456013990.06490230560302734375,85128
29,1456013990.11527967453002929688,85200
30,1456013990.16477656364440917969,85256
31,1456013990.21521043777465820312,85280
32,1456013990.26474332809448242188,85288
33,1456013990.31559133529663085938,85272
34,1456013990.36502718925476074219,85224
35,1456013990.4147472381591796875,85160
36,1456013990.46510291099548339844,85064
37,1456013990.51465249061584472656,84952
38,1456013990.56507825851440429688,84816
39,1456013990.61476445198059082031,84656
40,1456013990.66538667678833007812,84472
41,1456013990.71496796607971191406,84264
42,1456013990.76560616493225097656,84032
43,1456013990.81492161750793457031,83776
44,1456013990.864536285400390625,83504
45,1456013990.91487789154052734375,83208
46,1456013990.9656524658203125,82888
47,1456013991.01513528823852539062,82552
48,1456013991.0647144317626953125,82192
49,1456013991.1150226593017578125,81808
50,1456013991.16566443443298339844,81408
51,1456013991.2152156829833984375,80992
52,1456013991.26472401618957519531,80560
53,1456013991.3155670166015625,80096
54,1456013991.36499667167663574219,79624
55,1456013991.41447734832763671875,79144
56,1456013991.46484231948852539062,78632
57,1456013991.51541757583618164062,78104
58,1456013991.56479668617248535156,77576
59,1456013991.61545801162719726562,77016
60,1456013991.66489624977111816406,76456
61,1456013991.71517515182495117188,75872
62,1456013991.76472234725952148438,75280
63,1456013991.815052032470703125,74672
64,1456013991.8644962310791015625,74072
65,1456013991.91507959365844726562,73432
66,1456013991.96576809883117675781,72792
67,1456013992.01503968238830566406,72160
68,1456013992.06570792198181152344,71496
69,1456013992.11506104469299316406,70848
70,1456013992.16557049751281738281,70176
71,1456013992.21510267257690429688,69512
72,1456013992.26557064056396484375,68832
73,1456013992.31515932083129882812,68160
74,1456013992.36454129219055175781,67488
75,1456013992.41501569747924804688,66792
76,1456013992.46550107002258300781,66104
77,1456013992.51500940322875976562,65424
78,1456013992.56558465957641601562,64728
79,1456013992.61491751670837402344,64056
80,1456013992.66558933258056640625,63360
81,1456013992.71488666534423828125,62688
82,1456013992.76551938056945800781,62008
83,1456013992.814853668212890625,61344
84,1456013992.865627288818359375,60664
85,1456013992.9149913787841796875,60008
86,1456013992.96564245223999023438,59352
87,1456013993.01500105857849121094,58712
88,1456013993.06550002098083496094,58064
89,1456013993.11497378349304199219,57448
90,1456013993.16547942161560058594,56816
91,1456013993.21505212783813476562,56216
92,1456013993.26563358306884765625,55616
93,1456013993.31548571586608886719,55032
94,1456013993.36496758460998535156,54464
95,1456013993.41573286056518554688,53896
96,1456013993.46522307395935058594,53360
97,1456013993.51466155052185058594,52840
98,1456013993.56547284126281738281,52312
99,1456013993.614871978759765625,51824
100,1456013993.66567087173461914062,51336
101,1456013993.71525597572326660156,50880
102,1456013993.76521229743957519531,50432
103,1456013993.81543254852294921875,50008
104,1456013993.86529564857482910156,49600
105,1456013993.91508150100708007812,49216
106,1456013993.9648723602294921875,48848
107,1456013994.01546788215637207031,48496
108,1456013994.0655803680419921875,48168
109,1456013994.11484932899475097656,47872
110,1456013994.16509842872619628906,47584
111,1456013994.21565580368041992188,47320
112,1456013994.26475930213928222656,47088
113,1456013994.31505823135375976562,46864
114,1456013994.36528730392456054688,46672
115,1456013994.41543936729431152344,46504
116,1456013994.46464085578918457031,46360
117,1456013994.51536679267883300781,46232
118,1456013994.56448769569396972656,46128
119,1456013994.6145305633544921875,46056
120,1456013994.6649074554443359375,46000
121,1456013994.71506929397583007812,45976
122,1456013994.76545429229736328125,45968
123,1456013994.81563973426818847656,45984
124,1456013994.86487722396850585938,46032
125,1456013994.91537117958068847656,46096
126,1456013994.96567463874816894531,46192
127,1456013995.0151119232177734375,46304
128,1456013995.06539463996887207031,46440
129,1456013995.11520814895629882812,46600
130,1456013995.16561603546142578125,46792
131,1456013995.21494388580322265625,46992
132,1456013995.26524829864501953125,47224
133,1456013995.31557130813598632812,47480
134,1456013995.36494421958923339844,47752
135,1456013995.41518545150756835938,48048
136,1456013995.46455812454223632812,48360
137,1456013995.51469254493713378906,48704
138,1456013995.56522202491760253906,49064
139,1456013995.61574697494506835938,49448
140,1456013995.6651058197021484375,49848
141,1456013995.71553373336791992188,50264
142,1456013995.76478338241577148438,50696
143,1456013995.81526088714599609375,51160
144,1456013995.8655548095703125,51632
145,1456013995.91494297981262207031,52120
146,1456013995.965251922607421875,52632
147,1456013996.01593828201293945312,53160
148,1456013996.06513738632202148438,53688
149,1456013996.11551928520202636719,54240
150,1456013996.1646099090576171875,54800
151,1456013996.21494221687316894531,55384
152,1456013996.26548266410827636719,55984
153,1456013996.31465554237365722656,56576
154,1456013996.36537694931030273438,57200
155,1456013996.41449999809265136719,57816
156,1456013996.46479201316833496094,58448
157,1456013996.51502251625061035156,59096
158,1456013996.56545472145080566406,59752
159,1456013996.61449217796325683594,60400
160,1456013996.66457033157348632812,61064
161,1456013996.71496272087097167969,61744
162,1456013996.76516056060791015625,62416
163,1456013996.81447482109069824219,63088
164,1456013996.86460757255554199219,63768
165,1456013996.91482305526733398438,64456
166,1456013996.96516180038452148438,65144
167,1456013997.015735626220703125,65840
168,1456013997.06502866744995117188,66520
169,1456013997.11528468132019042969,67208
170,1456013997.16484832763671875,67880
171,1456013997.21518158912658691406,68568
172,1456013997.2645263671875,69240
173,1456013997.31472539901733398438,69912
174,1456013997.36528992652893066406,70584
175,1456013997.41569757461547851562,71256
176,1456013997.46501779556274414062,71896
177,1456013997.51538395881652832031,72544
178,1456013997.56567454338073730469,73192
179,1456013997.61522626876831054688,73816
180,1456013997.66552090644836425781,74432
181,1456013997.71493268013000488281,75040
182,1456013997.76521944999694824219,75640
183,1456013997.81577348709106445312,76224
184,1456013997.86505603790283203125,76792
185,1456013997.91580533981323242188,77360
186,1456013997.96552753448486328125,77896
187,1456013998.0150089263916015625,78424
188,1456013998.06464934349060058594,78928
189,1456013998.1150455474853515625,79432
190,1456013998.1655826568603515625,79920
191,1456013998.21476459503173828125,80376
192,1456013998.26546072959899902344,80824
193,1456013998.31457400321960449219,81240
194,1456013998.36501479148864746094,81656
195,1456013998.41540503501892089844,82040
196,1456013998.46566081047058105469,82416
197,1456013998.51511406898498535156,82760
198,1456013998.56546926498413085938,83088
199,1456013998.61488270759582519531,83384
200,1456013998.66512203216552734375,83672
201,1456013998.71573972702026367188,83936
202,1456013998.76498198509216308594,84168
203,1456013998.81554174423217773438,84392
204,1456013998.86468338966369628906,84584
205,1456013998.91503572463989257812,84752
206,1456013998.96565961837768554688,84904
207,1456013999.01501750946044921875,85024
208,1456013999.06570196151733398438,85128
209,1456013999.11501550674438476562,85200
210,1456013999.16559386253356933594,85256
211,1456013999.21462321281433105469,85280
212,1456013999.26517319679260253906,85288
213,1456013999.31542468070983886719,85272
214,1456013999.36447691917419433594,85224
215,1456013999.41494107246398925781,85160
216,1456013999.46507287025451660156,85064
217,1456013999.51537656784057617188,84952
218,1456013999.56549143791198730469,84816
219,1456013999.61581063270568847656,84648
220,1456013999.6648273468017578125,84472
221,1456013999.71511793136596679688,84264
222,1456013999.76536893844604492188,84032
223,1456013999.81552028656005859375,83776
224,1456013999.86474156379699707031,83504
225,1456013999.91488575935363769531,83208
226,1456013999.96519804000854492188,82888
227,1456014000.01527881622314453125,82552
228,1456014000.06559467315673828125,82184
229,1456014000.11451935768127441406,81816
230,1456014000.16562771797180175781,81408
231,1456014000.2147808074951171875,80992
232,1456014000.26492261886596679688,80560
233,1456014000.31526327133178710938,80096
234,1456014000.36537504196166992188,79624
235,1456014000.41560196876525878906,79128
236,1456014000.46455430984497070312,78632
237,1456014000.51475572586059570312,78112
238,1456014000.56494069099426269531,77568
239,1456014000.61566877365112304688,77008
240,1456014000.66485381126403808594,76456
241,1456014000.71505069732666015625,75872
242,1456014000.76556420326232910156,75272
243,1456014000.81451010704040527344,74680
244,1456014000.86475253105163574219,74064
245,1456014000.91485691070556640625,73440
246,1456014000.96544933319091796875,72800
247,1456014001.01456570625305175781,72168
248,1456014001.06497502326965332031,71512
249,1456014001.11520743370056152344,70848
250,1456014001.16543364524841308594,70176
251,1456014001.21456670761108398438,69520
252,1456014001.26452851295471191406,68848
253,1456014001.31486392021179199219,68160
254,1456014001.36505198478698730469,67480
255,1456014001.41555118560791015625,66784
256,1456014001.46449422836303710938,66120
257,1456014001.514759063720703125,65424
258,1456014001.56499433517456054688,64736
259,1456014001.61542272567749023438,64048
260,1456014001.6646099090576171875,63376
261,1456014001.71460700035095214844,62696
262,1456014001.76486277580261230469,62016
263,1456014001.81495547294616699219,61344
264,1456014001.86550140380859375,60664
265,1456014001.91557908058166503906,60008
266,1456014001.96467661857604980469,59360
267,1456014002.01503825187683105469,58712
268,1456014002.06542634963989257812,58064
269,1456014002.1147918701171875,57448
270,1456014002.1650409698486328125,56824
271,1456014002.21554684638977050781,56208
272,1456014002.26456141471862792969,55624
273,1456014002.31497144699096679688,55040
274,1456014002.36525559425354003906,54464
275,1456014002.41557860374450683594,53904
276,1456014002.46469783782958984375,53368
277,1456014002.51491761207580566406,52832
278,1456014002.56536555290222167969,52320
279,1456014002.61576962471008300781,51816
280,1456014002.66522288322448730469,51344
281,1456014002.71555304527282714844,50872
282,1456014002.76483750343322753906,50440
283,1456014002.81518316268920898438,50008
284,1456014002.86550211906433105469,49600
285,1456014002.9146366119384765625,49216
286,1456014002.9647369384765625,48848
287,1456014003.01514172554016113281,48496
288,1456014003.06524682044982910156,48168
289,1456014003.11564493179321289062,47864
290,1456014003.1645946502685546875,47584
291,1456014003.21483635902404785156,47320
292,1456014003.26501560211181640625,47080
293,1456014003.31520795822143554688,46864
294,1456014003.36546373367309570312,46672
295,1456014003.41554951667785644531,46504
296,1456014003.46475887298583984375,46352
297,1456014003.51496362686157226562,46232
298,1456014003.56541228294372558594,46128
299,1456014003.6154842376708984375,46056
300,1456014003.66587901115417480469,46000
301,1456014003.71501994132995605469,45976
302,1456014003.76541686058044433594,45968
303,1456014003.81560659408569335938,45984
304,1456014003.86458230018615722656,46032
305,1456014003.9150981903076171875,46096
306,1456014003.96541118621826171875,46192
307,1456014004.014904022216796875,46304
308,1456014004.06522774696350097656,46440
309,1456014004.1157245635986328125,46608
310,1456014004.16490650177001953125,46784
311,1456014004.21542143821716308594,46992
312,1456014004.26455473899841308594,47224
313,1456014004.31463932991027832031,47472
314,1456014004.36488246917724609375,47752
315,1456014004.41514182090759277344,48048
316,1456014004.46565103530883789062,48368
317,1456014004.51471614837646484375,48704
318,1456014004.56521248817443847656,49064
319,1456014004.61557459831237792969,49448
320,1456014004.66474175453186035156,49840
321,1456014004.71501040458679199219,50264
322,1456014004.765247344970703125,50704
323,1456014004.81453609466552734375,51152
324,1456014004.86469411849975585938,51624
325,1456014004.91525697708129882812,52120
326,1456014004.96558165550231933594,52632
327,1456014005.01482939720153808594,53144
328,1456014005.06514644622802734375,53688
329,1456014005.11559128761291503906,54240
330,1456014005.16470766067504882812,54800
331,1456014005.21498703956604003906,55384
332,1456014005.2655849456787109375,55984
333,1456014005.31472229957580566406,56576
334,1456014005.36472296714782714844,57192
335,1456014005.4150104522705078125,57816
336,1456014005.465480804443359375,58456
337,1456014005.51445746421813964844,59088
338,1456014005.5655994415283203125,59752
339,1456014005.61496067047119140625,60408
340,1456014005.66528367996215820312,61072
341,1456014005.71482515335083007812,61736
342,1456014005.76510024070739746094,62416
343,1456014005.81559967994689941406,63104
344,1456014005.86454749107360839844,63768
345,1456014005.91493296623229980469,64464
346,1456014005.96536135673522949219,65152
347,1456014006.01466655731201171875,65832
348,1456014006.06500697135925292969,66520
349,1456014006.11535525321960449219,67208
350,1456014006.16481494903564453125,67888
351,1456014006.21508860588073730469,68568
352,1456014006.26555776596069335938,69248
353,1456014006.31480145454406738281,69912
354,1456014006.36546063423156738281,70592
355,1456014006.41563582420349121094,71256
356,1456014006.46494030952453613281,71896
357,1456014006.51505994796752929688,72544
358,1456014006.56524252891540527344,73184
359,1456014006.61460995674133300781,73808
360,1456014006.66485524177551269531,74432
361,1456014006.71536231040954589844,75040
362,1456014006.76560449600219726562,75640
363,1456014006.81502437591552734375,76224
364,1456014006.86522340774536132812,76792
365,1456014006.91571116447448730469,77360
366,1456014006.96491694450378417969,77896
367,1456014007.01521420478820800781,78424
368,1456014007.06455707550048828125,78928
369,1456014007.11482906341552734375,79432
370,1456014007.165283203125,79912
371,1456014007.21559476852416992188,80384
372,1456014007.2649517059326171875,80816
373,1456014007.31528568267822265625,81248
374,1456014007.36582827568054199219,81664
375,1456014007.41509866714477539062,82040
376,1456014007.46545863151550292969,82416
377,1456014007.51482081413269042969,82752
378,1456014007.56503963470458984375,83080
379,1456014007.6155109405517578125,83392
380,1456014007.66477632522583007812,83672
381,1456014007.71522259712219238281,83936
382,1456014007.76552510261535644531,84176
383,1456014007.81483554840087890625,84392
384,1456014007.86517047882080078125,84584
385,1456014007.91545557975769042969,84752
386,1456014007.96483016014099121094,84904
387,1456014008.01512169837951660156,85024
388,1456014008.06553816795349121094,85128
389,1456014008.11455416679382324219,85200
390,1456014008.1650333404541015625,85256
391,1456014008.21541333198547363281,85280
392,1456014008.2647953033447265625,85288
393,1456014008.31522250175476074219,85272
394,1456014008.36555790901184082031,85224
395,1456014008.41488695144653320312,85160
396,1456014008.46514892578125,85064
397,1456014008.51449728012084960938,84952
398,1456014008.56473636627197265625,84816
399,1456014008.61514687538146972656,84656
400,1456014008.66547918319702148438,84464
401,1456014008.71477270126342773438,84264
402,1456014008.76502776145935058594,84032
403,1456014008.81525778770446777344,83776
404,1456014008.86462426185607910156,83504
405,1456014008.91491866111755371094,83208
406,1456014008.96538710594177246094,82888
407,1456014009.01571440696716308594,82544
408,1456014009.06548905372619628906,82192
409,1456014009.11456561088562011719,81816
410,1456014009.16500544548034667969,81416
411,1456014009.21540927886962890625,80992
412,1456014009.26562571525573730469,80552
413,1456014009.31498670578002929688,80104
414,1456014009.36523604393005371094,79624
415,1456014009.41453504562377929688,79144
416,1456014009.46473574638366699219,78632
417,1456014009.51537919044494628906,78104
418,1456014009.56444478034973144531,77576
419,1456014009.61477208137512207031,77024
420,1456014009.66523480415344238281,76448
421,1456014009.71560335159301757812,75864
422,1456014009.76496291160583496094,75280
423,1456014009.81523156166076660156,74672
424,1456014009.86451625823974609375,74072
425,1456014009.91477489471435546875,73440
426,1456014009.96529698371887207031,72800
427,1456014010.01567697525024414062,72152
428,1456014010.06499147415161132812,71512
429,1456014010.11509490013122558594,70848
430,1456014010.16537237167358398438,70184
431,1456014010.21481156349182128906,69520
432,1456014010.26517534255981445312,68840
433,1456014010.3145599365234375,68168
434,1456014010.36481881141662597656,67480
435,1456014010.415409088134765625,66792
436,1456014010.46443462371826171875,66120
437,1456014010.51469111442565917969,65424
438,1456014010.56503605842590332031,64736
439,1456014010.61554288864135742188,64048
440,1456014010.66496753692626953125,63368
441,1456014010.7152423858642578125,62688
442,1456014010.76445508003234863281,62016
443,1456014010.814525604248046875,61344
444,1456014010.86507415771484375,60672
445,1456014010.91543269157409667969,60008
446,1456014010.96458601951599121094,59360
447,1456014011.01483154296875,58712
448,1456014011.06508398056030273438,58072
449,1456014011.11556386947631835938,57440
450,1456014011.16459560394287109375,56832
451,1456014011.21524167060852050781,56216
452,1456014011.26559710502624511719,55616
453,1456014011.31483554840087890625,55040
454,1456014011.36503672599792480469,54464
455,1456014011.41547536849975585938,53904
456,1456014011.46557641029357910156,53360
457,1456014011.51561594009399414062,52824
458,1456014011.56483221054077148438,52320
459,1456014011.61493635177612304688,51824
460,1456014011.66526150703430175781,51344
461,1456014011.715404510498046875,50880
462,1456014011.76582312583923339844,50432
463,1456014011.81493115425109863281,50008
464,1456014011.86525297164916992188,49600
465,1456014011.91554617881774902344,49208
466,1456014011.96453595161437988281,48848
467,1456014012.01498532295227050781,48496
468,1456014012.06522011756896972656,48168
469,1456014012.11453366279602050781,47872
470,1456014012.164493560791015625,47584
471,1456014012.21572256088256835938,47320
472,1456014012.26484513282775878906,47088
473,1456014012.31519412994384765625,46864
474,1456014012.36544871330261230469,46672
475,1456014012.41560196876525878906,46504
476,1456014012.46482348442077636719,46352
477,1456014012.51486706733703613281,46232
478,1456014012.56520986557006835938,46128
479,1456014012.61547183990478515625,46056
480,1456014012.6657505035400390625,46000
