id, time (s), size (bits)
0,1456013989.44435262680053710938,82256
1,1456013989.49340581893920898438,82608
2,1456013989.54406642913818359375,82952
3,1456013989.59392333030700683594,83264
4,1456013989.64343929290771484375,83552
5,1456013989.69325757026672363281,83824
6,1456013989.74391603469848632812,84072
7,1456013989.79336023330688476562,84296
8,1456013989.84319543838500976562,84504
9,1456013989.89366769790649414062,84680
10,1456013989.94343042373657226562,84840
11,1456013989.99394965171813964844,84976
12,1456013990.04358720779418945312,85088
13,1456013990.09311151504516601562,85168
14,1456013990.14377355575561523438,85232
15,1456013990.19355869293212890625,85272
16,1456013990.24309754371643066406,85288
17,1456013990.29286289215087890625,85280
18,1456013990.3434295654296875,85248
19,1456013990.393169403076171875,85192
20,1456013990.44389557838439941406,85112
21,1456013990.49371409416198730469,85008
22,1456013990.54330778121948242188,84880
23,1456013990.59414410591125488281,84728
24,1456013990.64376282691955566406,84552
25,1456013990.69346737861633300781,84352
26,1456013990.74343442916870117188,84136
27,1456013990.79382753372192382812,83888
28,1456013990.843547821044921875,83624
29,1456013990.89285230636596679688,83344
30,1456013990.94368290901184082031,83032
31,1456013990.99333667755126953125,82704
32,1456013991.04406142234802246094,82344
33,1456013991.09384083747863769531,81976
34,1456013991.14338827133178710938,81584
35,1456013991.19338655471801757812,81176
36,1456013991.24403834342956542969,80744
37,1456013991.29378914833068847656,80296
38,1456013991.34343004226684570312,79832
39,1456013991.39432263374328613281,79344
40,1456013991.44369387626647949219,78848
41,1456013991.49390816688537597656,78328
42,1456013991.54338693618774414062,77808
43,1456013991.59374475479125976562,77256
44,1456013991.64325070381164550781,76696
45,1456013991.69367742538452148438,76120
46,1456013991.74305248260498046875,75544
47,1456013991.79335236549377441406,74936
48,1456013991.84385037422180175781,74320
49,1456013991.8930873870849609375,73712
50,1456013991.94382429122924804688,73072
51,1456013991.99328494071960449219,72440
52,1456013992.04360318183898925781,71784
53,1456013992.09301018714904785156,71144
54,1456013992.14333796501159667969,70472
55,1456013992.19397878646850585938,69800
56,1456013992.24342250823974609375,69128
57,1456013992.29405689239501953125,68448
58,1456013992.34342074394226074219,67776
59,1456013992.39395213127136230469,67080
60,1456013992.44342589378356933594,66408
61,1456013992.49384808540344238281,65712
62,1456013992.54333949089050292969,65032
63,1456013992.59372282028198242188,64344
64,1456013992.6431941986083984375,63664
65,1456013992.69390106201171875,62976
66,1456013992.74326872825622558594,62304
67,1456013992.79360342025756835938,61624
68,1456013992.84417963027954101562,60952
69,1456013992.89346265792846679688,60296
70,1456013992.94385504722595214844,59632
71,1456013992.99348354339599609375,58992
72,1456013993.04378247261047363281,58344
73,1456013993.09330010414123535156,57720
74,1456013993.14364576339721679688,57088
75,1456013993.19427227973937988281,56472
76,1456013993.24367809295654296875,55872
77,1456013993.29309511184692382812,55288
78,1456013993.34343576431274414062,54712
79,1456013993.39384746551513671875,54144
80,1456013993.4434642791748046875,53592
81,1456013993.49388623237609863281,53056
82,1456013993.54334402084350585938,52544
83,1456013993.5937709808349609375,52032
84,1456013993.64328670501708984375,51552
85,1456013993.69366812705993652344,51080
86,1456013993.74419546127319335938,50616
87,1456013993.793575286865234375,50192
88,1456013993.84378957748413085938,49776
89,1456013993.893115997314453125,49384
90,1456013993.94338631629943847656,49000
91,1456013993.99380922317504882812,48648
92,1456013994.04295802116394042969,48312
93,1456013994.09369587898254394531,47992
94,1456013994.14405751228332519531,47704
95,1456013994.19348239898681640625,47432
96,1456013994.243778228759765625,47184
97,1456013994.29290056228637695312,46960
98,1456013994.34342837333679199219,46752
99,1456013994.39367771148681640625,46576
100,1456013994.44287157058715820312,46416
101,1456013994.49301767349243164062,46280
102,1456013994.54363155364990234375,46168
103,1456013994.5940608978271484375,46080
104,1456013994.64364838600158691406,46024
105,1456013994.69389081001281738281,45984
106,1456013994.74299168586730957031,45968
107,1456013994.79341220855712890625,45976
108,1456013994.84386396408081054688,46008
109,1456013994.89341831207275390625,46064
110,1456013994.94371938705444335938,46144
111,1456013994.99427103996276855469,46256
112,1456013995.04357671737670898438,46376
113,1456013995.09424567222595214844,46536
114,1456013995.1436614990234375,46704
115,1456013995.19395112991333007812,46904
116,1456013995.24346470832824707031,47120
117,1456013995.29370021820068359375,47368
118,1456013995.343196868896484375,47632
119,1456013995.39359426498413085938,47920
120,1456013995.44415521621704101562,48232
121,1456013995.49346852302551269531,48560
122,1456013995.5440044403076171875,48912
123,1456013995.59346747398376464844,49280
124,1456013995.64385819435119628906,49672
125,1456013995.69339108467102050781,50080
126,1456013995.74378848075866699219,50512
127,1456013995.79341387748718261719,50960
128,1456013995.84385323524475097656,51424
129,1456013995.89409089088439941406,51912
130,1456013995.94348120689392089844,52408
131,1456013995.99405670166015625,52928
132,1456013996.04349732398986816406,53448
133,1456013996.09399271011352539062,54000
134,1456013996.14363646507263183594,54560
135,1456013996.19395852088928222656,55136
136,1456013996.24353098869323730469,55720
137,1456013996.29384756088256835938,56320
138,1456013996.34332990646362304688,56928
139,1456013996.39375782012939453125,57552
140,1456013996.44308590888977050781,58176
141,1456013996.49344873428344726562,58816
142,1456013996.54381728172302246094,59472
143,1456013996.59348273277282714844,60120
144,1456013996.64397072792053222656,60792
145,1456013996.69355344772338867188,61456
146,1456013996.74384999275207519531,62128
147,1456013996.79333639144897460938,62800
148,1456013996.84380817413330078125,63488
149,1456013996.8933773040771484375,64168
150,1456013996.94372296333312988281,64856
151,1456013996.99404382705688476562,65544
152,1456013997.04399275779724121094,66232
153,1456013997.09346771240234375,66912
154,1456013997.14304137229919433594,67584
155,1456013997.19333887100219726562,68272
156,1456013997.243869781494140625,68960
157,1456013997.2932109832763671875,69624
158,1456013997.34388041496276855469,70304
159,1456013997.39331531524658203125,70960
160,1456013997.44345760345458984375,71616
161,1456013997.49406766891479492188,72272
162,1456013997.54354524612426757812,72912
163,1456013997.59328103065490722656,73536
164,1456013997.64380192756652832031,74168
165,1456013997.69321131706237792969,74776
166,1456013997.74362111091613769531,75384
167,1456013997.79410552978515625,75976
168,1456013997.843540191650390625,76544
169,1456013997.89392757415771484375,77120
170,1456013997.94354677200317382812,77664
171,1456013997.99389886856079101562,78200
172,1456013998.04340124130249023438,78712
173,1456013998.09380197525024414062,79224
174,1456013998.14326739311218261719,79704
175,1456013998.19360232353210449219,80176
176,1456013998.24404573440551757812,80632
177,1456013998.29333257675170898438,81064
178,1456013998.34370088577270507812,81480
179,1456013998.39343237876892089844,81880
180,1456013998.44370508193969726562,82256
181,1456013998.49312543869018554688,82608
182,1456013998.5434474945068359375,82944
183,1456013998.5941162109375,83264
184,1456013998.64354801177978515625,83552
185,1456013998.69400358200073242188,83824
186,1456013998.74333024024963378906,84072
187,1456013998.79364871978759765625,84296
188,1456013998.84321427345275878906,84504
189,1456013998.89364886283874511719,84680
190,1456013998.94319415092468261719,84840
191,1456013998.99358296394348144531,84976
192,1456013999.04416775703430175781,85088
193,1456013999.0936679840087890625,85168
194,1456013999.14313578605651855469,85232
195,1456013999.19356799125671386719,85272
196,1456013999.24386692047119140625,85288
197,1456013999.29344344139099121094,85280
198,1456013999.34379506111145019531,85248
199,1456013999.39342737197875976562,85192
200,1456013999.44378066062927246094,85112
201,1456013999.49423003196716308594,85000
202,1456013999.54352450370788574219,84880
203,1456013999.59426760673522949219,84720
204,1456013999.64367079734802246094,84552
205,1456013999.69285821914672851562,84360
206,1456013999.74336147308349609375,84136
207,1456013999.79374933242797851562,83888
208,1456013999.84305357933044433594,83632
209,1456013999.8934841156005859375,83336
210,1456013999.94413781166076660156,83024
211,1456013999.99354577064514160156,82696
212,1456014000.04424500465393066406,82344
213,1456014000.09379792213439941406,81976
214,1456014000.14324283599853515625,81592
215,1456014000.19377899169921875,81176
216,1456014000.24306774139404296875,80752
217,1456014000.29358243942260742188,80296
218,1456014000.34398317337036132812,79832
219,1456014000.39359521865844726562,79352
220,1456014000.44392871856689453125,78848
221,1456014000.49354004859924316406,78336
222,1456014000.54392147064208984375,77800
223,1456014000.59343647956848144531,77256
224,1456014000.64400839805603027344,76688
225,1456014000.693317413330078125,76128
226,1456014000.74389529228210449219,75528
227,1456014000.79324555397033691406,74944
228,1456014000.84390211105346679688,74320
229,1456014000.89327478408813476562,73712
230,1456014000.94391798973083496094,73072
231,1456014000.99329638481140136719,72440
232,1456014001.04355335235595703125,71792
233,1456014001.09411692619323730469,71128
234,1456014001.14343500137329101562,70472
235,1456014001.19380116462707519531,69800
236,1456014001.2429866790771484375,69136
237,1456014001.29362511634826660156,68448
238,1456014001.34403896331787109375,67768
239,1456014001.39371776580810546875,67088
240,1456014001.44307565689086914062,66408
241,1456014001.4933948516845703125,65720
242,1456014001.54384827613830566406,65024
243,1456014001.5932216644287109375,64352
244,1456014001.64384150505065917969,63656
245,1456014001.69315338134765625,62984
246,1456014001.74387025833129882812,62296
247,1456014001.79321360588073730469,61632
248,1456014001.84388113021850585938,60952
249,1456014001.89339423179626464844,60296
250,1456014001.94369173049926757812,59632
251,1456014001.9931278228759765625,58992
252,1456014002.0434932708740234375,58344
253,1456014002.09307408332824707031,57720
254,1456014002.14353799819946289062,57088
255,1456014002.19403028488159179688,56472
256,1456014002.24337053298950195312,55880
257,1456014002.29375362396240234375,55280
258,1456014002.34416508674621582031,54704
259,1456014002.39356827735900878906,54144
260,1456014002.44396257400512695312,53592
261,1456014002.49306392669677734375,53064
262,1456014002.54346609115600585938,52536
263,1456014002.59379339218139648438,52032
264,1456014002.64328765869140625,51552
265,1456014002.69348978996276855469,51080
266,1456014002.74397778511047363281,50624
267,1456014002.79325222969055175781,50192
268,1456014002.84370398521423339844,49776
269,1456014002.89327740669250488281,49384
270,1456014002.94359803199768066406,49000
271,1456014002.99399638175964355469,48640
272,1456014003.04333329200744628906,48312
273,1456014003.09403324127197265625,47992
274,1456014003.143428802490234375,47704
275,1456014003.19393467903137207031,47432
276,1456014003.24329614639282226562,47184
277,1456014003.29357552528381347656,46960
278,1456014003.34407830238342285156,46752
279,1456014003.39352130889892578125,46576
280,1456014003.44393849372863769531,46416
281,1456014003.49313712120056152344,46280
282,1456014003.54377055168151855469,46168
283,1456014003.59411573410034179688,46080
284,1456014003.64359831809997558594,46024
285,1456014003.693798065185546875,45984
286,1456014003.74400210380554199219,45968
287,1456014003.79347109794616699219,45976
288,1456014003.84392023086547851562,46008
289,1456014003.89356184005737304688,46064
290,1456014003.94384884834289550781,46144
291,1456014003.99331378936767578125,46248
292,1456014004.04370260238647460938,46376
293,1456014004.09435200691223144531,46536
294,1456014004.14382696151733398438,46704
295,1456014004.19312334060668945312,46896
296,1456014004.24371004104614257812,47120
297,1456014004.29402518272399902344,47368
298,1456014004.34372735023498535156,47632
299,1456014004.39310789108276367188,47912
300,1456014004.44361376762390136719,48224
301,1456014004.49399232864379882812,48560
302,1456014004.54356217384338378906,48904
303,1456014004.59402036666870117188,49280
304,1456014004.64342808723449707031,49672
305,1456014004.69386816024780273438,50080
306,1456014004.74301123619079589844,50504
307,1456014004.79354262351989746094,50960
308,1456014004.84396409988403320312,51424
309,1456014004.89353585243225097656,51904
310,1456014004.94373321533203125,52408
311,1456014004.99423074722290039062,52928
312,1456014005.04353094100952148438,53456
313,1456014005.09390211105346679688,54000
314,1456014005.14351773262023925781,54560
315,1456014005.1937656402587890625,55136
316,1456014005.24336934089660644531,55720
317,1456014005.29365420341491699219,56320
318,1456014005.34421396255493164062,56936
319,1456014005.39359927177429199219,57552
320,1456014005.44403862953186035156,58184
321,1456014005.49351167678833007812,58816
322,1456014005.54394125938415527344,59472
323,1456014005.59360933303833007812,60120
324,1456014005.64402222633361816406,60792
325,1456014005.69348239898681640625,61448
326,1456014005.74386715888977050781,62128
327,1456014005.79340600967407226562,62800
328,1456014005.84373998641967773438,63488
329,1456014005.89313721656799316406,64160
330,1456014005.9435863494873046875,64856
331,1456014005.99408936500549316406,65544
332,1456014006.04380297660827636719,66232
333,1456014006.0929851531982421875,66904
334,1456014006.14347052574157714844,67592
335,1456014006.19380521774291992188,68280
336,1456014006.24330353736877441406,68952
337,1456014006.29371476173400878906,69632
338,1456014006.34419608116149902344,70304
339,1456014006.39359498023986816406,70960
340,1456014006.44399023056030273438,71624
341,1456014006.4937896728515625,72272
342,1456014006.543186187744140625,72904
343,1456014006.59377455711364746094,73544
344,1456014006.64310288429260253906,74160
345,1456014006.69367837905883789062,74776
346,1456014006.74421977996826171875,75384
347,1456014006.79387927055358886719,75976
348,1456014006.84320545196533203125,76544
349,1456014006.89360857009887695312,77112
350,1456014006.94332122802734375,77656
351,1456014006.99389386177062988281,78200
352,1456014007.043567657470703125,78720
353,1456014007.09398937225341796875,79224
354,1456014007.14366030693054199219,79712
355,1456014007.19423532485961914062,80184
356,1456014007.24392652511596679688,80632
357,1456014007.29352641105651855469,81064
358,1456014007.34404301643371582031,81488
359,1456014007.39373779296875,81880
360,1456014007.44413900375366210938,82256
361,1456014007.49378418922424316406,82608
362,1456014007.54343199729919433594,82944
363,1456014007.59407734870910644531,83264
364,1456014007.64332079887390136719,83552
365,1456014007.69394230842590332031,83824
366,1456014007.74325394630432128906,84072
367,1456014007.7936954498291015625,84296
368,1456014007.84332752227783203125,84504
369,1456014007.89371371269226074219,84680
370,1456014007.94326376914978027344,84840
371,1456014007.99360489845275878906,84976
372,1456014008.0443115234375,85088
373,1456014008.093708038330078125,85168
374,1456014008.14315652847290039062,85232
375,1456014008.19357728958129882812,85272
376,1456014008.24401068687438964844,85288
377,1456014008.293727874755859375,85280
378,1456014008.34306550025939941406,85248
379,1456014008.39355206489562988281,85192
380,1456014008.4438991546630859375,85112
381,1456014008.49351215362548828125,85008
382,1456014008.54411530494689941406,84880
383,1456014008.59383058547973632812,84728
384,1456014008.64317393302917480469,84552
385,1456014008.69353222846984863281,84352
386,1456014008.74291205406188964844,84136
387,1456014008.79339361190795898438,83888
388,1456014008.84402799606323242188,83624
389,1456014008.89335966110229492188,83336
390,1456014008.94390559196472167969,83024
391,1456014008.99307107925415039062,82704
392,1456014009.04374980926513671875,82344
393,1456014009.09302115440368652344,81984
394,1456014009.14324784278869628906,81592
395,1456014009.19371390342712402344,81176
396,1456014009.24390625953674316406,80744
397,1456014009.29338502883911132812,80304
398,1456014009.34371829032897949219,79832
399,1456014009.39425778388977050781,79344
400,1456014009.44350934028625488281,78848
401,1456014009.49400663375854492188,78328
402,1456014009.54350137710571289062,77800
403,1456014009.59381437301635742188,77256
404,1456014009.643222808837890625,76704
405,1456014009.69349527359008789062,76120
406,1456014009.74388098716735839844,75528
407,1456014009.79316782951354980469,74944
408,1456014009.84379982948303222656,74328
409,1456014009.89286947250366210938,73712
410,1456014009.943157196044921875,73080
411,1456014009.99346208572387695312,72440
412,1456014010.04385828971862792969,71784
413,1456014010.09335684776306152344,71136
414,1456014010.14351940155029296875,70472
415,1456014010.19392609596252441406,69800
416,1456014010.24318790435791015625,69136
417,1456014010.29382586479187011719,68448
418,1456014010.34303045272827148438,67776
419,1456014010.39333510398864746094,67088
420,1456014010.44357991218566894531,66400
421,1456014010.49405622482299804688,65712
422,1456014010.54377102851867675781,65032
423,1456014010.59307169914245605469,64352
424,1456014010.64356374740600585938,63664
425,1456014010.69392514228820800781,62976
426,1456014010.74348163604736328125,62304
427,1456014010.7938690185546875,61624
428,1456014010.84346866607666015625,60960
429,1456014010.89378619194030761719,60288
430,1456014010.9429931640625,59648
431,1456014010.99349260330200195312,58992
432,1456014011.04395818710327148438,58344
433,1456014011.09352231025695800781,57712
434,1456014011.14377570152282714844,57088
435,1456014011.1942768096923828125,56472
436,1456014011.24359226226806640625,55872
437,1456014011.29419374465942382812,55280
438,1456014011.34360718727111816406,54704
439,1456014011.39394474029541015625,54136
440,1456014011.44342780113220214844,53592
441,1456014011.49385881423950195312,53056
442,1456014011.54367184638977050781,52536
443,1456014011.59406733512878417969,52032
444,1456014011.64351034164428710938,51544
445,1456014011.69381570816040039062,51072
446,1456014011.74310803413391113281,50632
447,1456014011.79359078407287597656,50192
448,1456014011.84390544891357421875,49768
449,1456014011.89339447021484375,49376
450,1456014011.94374561309814453125,49000
451,1456014011.99334955215454101562,48648
452,1456014012.0439128875732421875,48312
453,1456014012.09354329109191894531,48000
454,1456014012.1437091827392578125,47704
455,1456014012.19409060478210449219,47432
456,1456014012.24335312843322753906,47184
457,1456014012.29373812675476074219,46960
458,1456014012.3432521820068359375,46752
459,1456014012.39347434043884277344,46576
460,1456014012.44404292106628417969,46416
461,1456014012.49334478378295898438,46280
462,1456014012.54399824142456054688,46168
463,1456014012.59332013130187988281,46088
464,1456014012.64361119270324707031,46024
465,1456014012.69392728805541992188,45984
466,1456014012.74331021308898925781,45968
467,1456014012.79394841194152832031,45976
468,1456014012.84337115287780761719,46008
469,1456014012.89402627944946289062,46064
470,1456014012.94345307350158691406,46144
471,1456014012.99403858184814453125,46248
472,1456014013.04354763031005859375,46376
473,1456014013.09404110908508300781,46528
474,1456014013.14328169822692871094,46704
475,1456014013.19353747367858886719,46904
476,1456014013.24295902252197265625,47120
477,1456014013.29338669776916503906,47368
478,1456014013.34403395652770996094,47632
479,1456014013.39333415031433105469,47920
480,1456014013.443813323974609375,48232
