id, time (s), size (bits)
0,1455903268.42993617057800292969,1455903268.42996263504028320312,4488
1,1455903268.54070329666137695312,1455903268.54072093963623046875,4552
2,1455903268.61370229721069335938,1455903268.61372637748718261719,4600
3,1455903268.68697261810302734375,1455903268.68701004981994628906,4656
4,1455903268.75974392890930175781,1455903268.75978231430053710938,4712
5,1455903268.83280706405639648438,1455903268.832828521728515625,4776
6,1455903268.90580868721008300781,1455903268.90582871437072753906,4840
7,1455903268.97857570648193359375,1455903268.97859597206115722656,4904
8,1455903269.05168581008911132812,1455903269.05173993110656738281,4976
9,1455903269.1246700286865234375,1455903269.12468838691711425781,5048
10,1455903269.19781017303466796875,1455903269.19785428047180175781,5128
11,1455903269.27101254463195800781,1455903269.27103304862976074219,5200
12,1455903269.3441486358642578125,1455903269.34416818618774414062,5288
13,1455903269.41711711883544921875,1455903269.41715478897094726562,5368
14,1455903269.49025392532348632812,1455903269.49027228355407714844,5456
15,1455903269.56333661079406738281,1455903269.56335878372192382812,5536
16,1455903269.63651800155639648438,1455903269.63656449317932128906,5624
17,1455903269.70968842506408691406,1455903269.70971179008483886719,5720
18,1455903269.78315114974975585938,1455903269.78319072723388671875,5808
19,1455903269.85597395896911621094,1455903269.85599398612976074219,5896
20,1455903269.92879462242126464844,1455903269.92881727218627929688,5992
21,1455903270.00178694725036621094,1455903270.00180816650390625,6080
22,1455903270.0748081207275390625,1455903270.07482886314392089844,6176
23,1455903270.14744067192077636719,1455903270.14746260643005371094,6264
24,1455903270.22077465057373046875,1455903270.22079539299011230469,6352
25,1455903270.29358148574829101562,1455903270.29360318183898925781,6448
26,1455903270.36680865287780761719,1455903270.36683249473571777344,6536
27,1455903270.43966555595397949219,1455903270.43968701362609863281,6624
28,1455903270.51276397705078125,1455903270.51280736923217773438,6712
29,1455903270.58596849441528320312,1455903270.58598947525024414062,6792
30,1455903270.65889143943786621094,1455903270.65891385078430175781,6880
31,1455903270.73219418525695800781,1455903270.73221802711486816406,6960
32,1455903270.80539703369140625,1455903270.80541777610778808594,7040
33,1455903270.87833404541015625,1455903270.87835478782653808594,7120
34,1455903270.95119118690490722656,1455903270.95121216773986816406,7192
35,1455903271.02430653572082519531,1455903271.02434825897216796875,7264
36,1455903271.09769463539123535156,1455903271.09773993492126464844,7328
37,1455903271.17087316513061523438,1455903271.17089390754699707031,7392
38,1455903271.24416399002075195312,1455903271.24418377876281738281,7456
39,1455903271.31695151329040527344,1455903271.31697130203247070312,7512
40,1455903271.38992023468017578125,1455903271.38995957374572753906,7568
41,1455903271.46279644966125488281,1455903271.46282434463500976562,7624
42,1455903271.53572010993957519531,1455903271.53574013710021972656,7664
43,1455903271.60898923873901367188,1455903271.60903000831604003906,7712
44,1455903271.68179559707641601562,1455903271.68181872367858886719,7744
45,1455903271.75482678413391113281,1455903271.75484633445739746094,7784
46,1455903271.82729840278625488281,1455903271.8273181915283203125,7808
47,1455903271.90030837059020996094,1455903271.90034818649291992188,7832
48,1455903271.9734249114990234375,1455903271.97346353530883789062,7856
49,1455903272.04637074470520019531,1455903272.04639315605163574219,7872
50,1455903272.1191501617431640625,1455903272.119171142578125,7880
51,1455903272.19214773178100585938,1455903272.19218897819519042969,7888
52,1455903272.26538228988647460938,1455903272.26540279388427734375,7888
53,1455903272.3384189605712890625,1455903272.33845973014831542969,7888
54,1455903272.41185760498046875,1455903272.41189527511596679688,7880
55,1455903272.48475503921508789062,1455903272.484775543212890625,7872
56,1455903272.55762481689453125,1455903272.55766248703002929688,7856
57,1455903272.63027167320251464844,1455903272.63029313087463378906,7832
58,1455903272.70361661911010742188,1455903272.70363950729370117188,7808
59,1455903272.77671551704406738281,1455903272.77673697471618652344,7776
60,1455903272.84986400604248046875,1455903272.84988498687744140625,7744
61,1455903272.92312192916870117188,1455903272.92314314842224121094,7704
62,1455903272.99622511863708496094,1455903272.99626469612121582031,7656
63,1455903273.06938219070434570312,1455903273.06940412521362304688,7616
64,1455903273.14260339736938476562,1455903273.14264202117919921875,7560
65,1455903273.21555685997009277344,1455903273.2155780792236328125,7504
66,1455903273.288631439208984375,1455903273.28865265846252441406,7448
67,1455903273.36156988143920898438,1455903273.36160731315612792969,7384
68,1455903273.43456411361694335938,1455903273.43460249900817871094,7320
69,1455903273.50760030746459960938,1455903273.50764012336730957031,7248
70,1455903273.58065032958984375,1455903273.58068966865539550781,7184
71,1455903273.65391850471496582031,1455903273.65393996238708496094,7104
72,1455903273.72679114341735839844,1455903273.72681403160095214844,7032
73,1455903273.80034327507019042969,1455903273.80036568641662597656,6952
74,1455903273.87353515625,1455903273.87357330322265625,6864
75,1455903273.94687819480895996094,1455903273.94689965248107910156,6784
76,1455903274.01957869529724121094,1455903274.01959991455078125,6696
77,1455903274.09270739555358886719,1455903274.09272718429565429688,6608
78,1455903274.1662235260009765625,1455903274.1662445068359375,6520
79,1455903274.23924851417541503906,1455903274.23926901817321777344,6432
80,1455903274.31228661537170410156,1455903274.31232810020446777344,6344
81,1455903274.38502335548400878906,1455903274.38506293296813964844,6248
82,1455903274.45828652381896972656,1455903274.45830678939819335938,6160
83,1455903274.53092312812805175781,1455903274.53094315528869628906,6064
84,1455903274.60379362106323242188,1455903274.60381340980529785156,5976
85,1455903274.67696905136108398438,1455903274.67698979377746582031,5880
86,1455903274.74995112419128417969,1455903274.74997091293334960938,5792
87,1455903274.8230495452880859375,1455903274.82306957244873046875,5704
88,1455903274.8957500457763671875,1455903274.895786285400390625,5616
89,1455903274.96886372566223144531,1455903274.96889781951904296875,5528
90,1455903275.04204130172729492188,1455903275.04206132888793945312,5440
91,1455903275.11466169357299804688,1455903275.114681243896484375,5352
92,1455903275.188068389892578125,1455903275.18808889389038085938,5272
93,1455903275.26115894317626953125,1455903275.26119709014892578125,5192
94,1455903275.33447027206420898438,1455903275.33450841903686523438,5112
95,1455903275.40710377693176269531,1455903275.40712451934814453125,5040
96,1455903275.48009967803955078125,1455903275.48011946678161621094,4968
97,1455903275.55357670783996582031,1455903275.55359721183776855469,4896
98,1455903275.62679076194763183594,1455903275.62681341171264648438,4824
99,1455903275.69978046417236328125,1455903275.69979906082153320312,4760
100,1455903275.77282309532165527344,1455903275.77286195755004882812,4704
101,1455903275.845584869384765625,1455903275.84562349319458007812,4648
102,1455903275.91835999488830566406,1455903275.91838145256042480469,4592
103,1455903275.99184203147888183594,1455903275.99188137054443359375,4544
104,1455903276.06437945365905761719,1455903276.06441020965576171875,4504
105,1455903276.13750290870666503906,1455903276.13752508163452148438,4456
106,1455903276.21063184738159179688,1455903276.2106533050537109375,4424
107,1455903276.28369641304016113281,1455903276.28374576568603515625,4392
108,1455903276.35683941841125488281,1455903276.35686206817626953125,4360
109,1455903276.42979741096496582031,1455903276.42981791496276855469,4336
110,1455903276.50343585014343261719,1455903276.50347256660461425781,4320
111,1455903276.57606101036071777344,1455903276.57608199119567871094,4304
112,1455903276.64934563636779785156,1455903276.64936757087707519531,4296
113,1455903276.72263073921203613281,1455903276.72268438339233398438,4296
114,1455903276.79561614990234375,1455903276.79565596580505371094,4296
115,1455903276.86865854263305664062,1455903276.868679046630859375,4296
116,1455903276.94166827201843261719,1455903276.94169259071350097656,4304
117,1455903277.01481533050537109375,1455903277.0148410797119140625,4320
118,1455903277.08754634857177734375,1455903277.08756661415100097656,4336
119,1455903277.16107392311096191406,1455903277.16109323501586914062,4360
120,1455903277.23472142219543457031,1455903277.23474287986755371094,4392
121,1455903277.30790781974792480469,1455903277.30792880058288574219,4424
122,1455903277.38111519813537597656,1455903277.38113665580749511719,4456
123,1455903277.45400977134704589844,1455903277.45402836799621582031,4496
124,1455903277.52699780464172363281,1455903277.52701830863952636719,4544
125,1455903277.59966635704040527344,1455903277.5997161865234375,4592
126,1455903277.67281341552734375,1455903277.6728572845458984375,4648
127,1455903277.74565052986145019531,1455903277.74567246437072753906,4704
128,1455903277.81888270378112792969,1455903277.81892275810241699219,4760
129,1455903277.89229631423950195312,1455903277.8923168182373046875,4824
130,1455903277.96507024765014648438,1455903277.96510910987854003906,4888
131,1455903278.03824687004089355469,1455903278.03826904296875,4960
132,1455903278.11082625389099121094,1455903278.11086583137512207031,5032
133,1455903278.18380260467529296875,1455903278.1838226318359375,5112
134,1455903278.25699877738952636719,1455903278.25702166557312011719,5192
135,1455903278.33010268211364746094,1455903278.33014202117919921875,5272
136,1455903278.40284943580627441406,1455903278.40287065505981445312,5352
137,1455903278.47546529769897460938,1455903278.47548580169677734375,5432
138,1455903278.54840636253356933594,1455903278.54842710494995117188,5520
139,1455903278.62177276611328125,1455903278.621822357177734375,5608
140,1455903278.69506883621215820312,1455903278.69512653350830078125,5696
141,1455903278.76813554763793945312,1455903278.7681865692138671875,5792
142,1455903278.84096527099609375,1455903278.84100246429443359375,5880
143,1455903278.91396212577819824219,1455903278.91400122642517089844,5968
144,1455903278.98680353164672851562,1455903278.98682498931884765625,6064
145,1455903279.05973792076110839844,1455903279.05975747108459472656,6152
146,1455903279.132907867431640625,1455903279.13293170928955078125,6248
147,1455903279.20604181289672851562,1455903279.20607686042785644531,6336
148,1455903279.27966594696044921875,1455903279.27970147132873535156,6432
149,1455903279.35285282135009765625,1455903279.3528919219970703125,6520
150,1455903279.42607474327087402344,1455903279.42609810829162597656,6608
151,1455903279.49895739555358886719,1455903279.49899578094482421875,6696
152,1455903279.57193064689636230469,1455903279.57195234298706054688,6776
153,1455903279.64511251449584960938,1455903279.64513683319091796875,6864
154,1455903279.71840405464172363281,1455903279.71842479705810546875,6944
155,1455903279.79135727882385253906,1455903279.79137754440307617188,7024
156,1455903279.86460065841674804688,1455903279.864620208740234375,7104
157,1455903279.93754816055297851562,1455903279.93758559226989746094,7176
158,1455903280.01056170463562011719,1455903280.01059556007385253906,7248
159,1455903280.08360052108764648438,1455903280.08362030982971191406,7320
160,1455903280.15690302848815917969,1455903280.15694093704223632812,7384
161,1455903280.230030059814453125,1455903280.2300701141357421875,7448
162,1455903280.30299806594848632812,1455903280.3030185699462890625,7504
163,1455903280.37595868110656738281,1455903280.37599611282348632812,7560
164,1455903280.449436187744140625,1455903280.44945573806762695312,7608
165,1455903280.52219986915588378906,1455903280.52221846580505371094,7656
166,1455903280.59512829780578613281,1455903280.59516620635986328125,7704
167,1455903280.66807031631469726562,1455903280.66809248924255371094,7744
168,1455903280.74086165428161621094,1455903280.74088311195373535156,7776
169,1455903280.813968658447265625,1455903280.81398892402648925781,7808
170,1455903280.88691926002502441406,1455903280.88694357872009277344,7832
171,1455903280.95994901657104492188,1455903280.95996999740600585938,7856
172,1455903281.03300428390502929688,1455903281.03302502632141113281,7872
173,1455903281.10603427886962890625,1455903281.10605454444885253906,7880
174,1455903281.17897272109985351562,1455903281.17899465560913085938,7888
175,1455903281.25246262550354003906,1455903281.25248670578002929688,7888
176,1455903281.3260059356689453125,1455903281.32604455947875976562,7888
177,1455903281.39890456199645996094,1455903281.3989391326904296875,7880
178,1455903281.47155213356018066406,1455903281.47157144546508789062,7872
179,1455903281.54442191123962402344,1455903281.54444479942321777344,7856
180,1455903281.61760950088500976562,1455903281.6176300048828125,7840
181,1455903281.69034075736999511719,1455903281.69036149978637695312,7808
182,1455903281.76346755027770996094,1455903281.76350617408752441406,7784
183,1455903281.83695173263549804688,1455903281.83696961402893066406,7752
184,1455903281.9099864959716796875,1455903281.91000819206237792969,7712
185,1455903281.98277115821838378906,1455903281.98279285430908203125,7664
186,1455903282.05569624900817871094,1455903282.05571866035461425781,7624
187,1455903282.12843585014343261719,1455903282.12845611572265625,7568
188,1455903282.20109677314758300781,1455903282.20111966133117675781,7520
189,1455903282.27413988113403320312,1455903282.27416014671325683594,7456
190,1455903282.34773683547973632812,1455903282.34775757789611816406,7400
191,1455903282.42078900337219238281,1455903282.42081952095031738281,7336
192,1455903282.49372506141662597656,1455903282.49376344680786132812,7264
193,1455903282.56697583198547363281,1455903282.56701421737670898438,7192
194,1455903282.64024686813354492188,1455903282.64026546478271484375,7120
195,1455903282.71285104751586914062,1455903282.71287107467651367188,7040
196,1455903282.78595638275146484375,1455903282.78597807884216308594,6968
197,1455903282.858692169189453125,1455903282.85871410369873046875,6880
198,1455903282.93185782432556152344,1455903282.931896209716796875,6800
199,1455903283.00525808334350585938,1455903283.00527882575988769531,6712
200,1455903283.07805776596069335938,1455903283.07808017730712890625,6624
201,1455903283.15124869346618652344,1455903283.15126895904541015625,6536
202,1455903283.22410130500793457031,1455903283.22413969039916992188,6448
203,1455903283.2972850799560546875,1455903283.29732298851013183594,6360
204,1455903283.37020087242126464844,1455903283.37022709846496582031,6264
205,1455903283.44338202476501464844,1455903283.4434032440185546875,6176
206,1455903283.516262054443359375,1455903283.51628351211547851562,6088
207,1455903283.58931994438171386719,1455903283.58934140205383300781,5992
208,1455903283.66259813308715820312,1455903283.6626186370849609375,5904
209,1455903283.7351894378662109375,1455903283.73521113395690917969,5808
210,1455903283.80794286727905273438,1455903283.80798220634460449219,5720
211,1455903283.88092756271362304688,1455903283.88094854354858398438,5632
212,1455903283.95420241355895996094,1455903283.95422482490539550781,5544
213,1455903284.02736783027648925781,1455903284.0273895263671875,5456
214,1455903284.10022854804992675781,1455903284.10026788711547851562,5368
215,1455903284.17321610450744628906,1455903284.17323708534240722656,5288
216,1455903284.24619412422180175781,1455903284.24623322486877441406,5208
217,1455903284.31945776939392089844,1455903284.31947875022888183594,5128
218,1455903284.39288949966430664062,1455903284.39292883872985839844,5056
219,1455903284.46608448028564453125,1455903284.46612310409545898438,4976
220,1455903284.53899693489074707031,1455903284.53901696205139160156,4904
221,1455903284.61201310157775878906,1455903284.61203312873840332031,4840
222,1455903284.68534398078918457031,1455903284.68536424636840820312,4776
223,1455903284.75861954689025878906,1455903284.75863909721374511719,4712
224,1455903284.83181285858154296875,1455903284.83185458183288574219,4656
225,1455903284.90516924858093261719,1455903284.90521216392517089844,4600
226,1455903284.97808551788330078125,1455903284.97810602188110351562,4552
227,1455903285.05113315582275390625,1455903285.05115365982055664062,4512
228,1455903285.1240215301513671875,1455903285.12404155731201171875,4464
229,1455903285.19687390327453613281,1455903285.1968936920166015625,4432
230,1455903285.26937150955200195312,1455903285.2693920135498046875,4400
231,1455903285.3425922393798828125,1455903285.34261298179626464844,4368
232,1455903285.4154491424560546875,1455903285.41546988487243652344,4344
233,1455903285.4882411956787109375,1455903285.48826503753662109375,4328
234,1455903285.56176018714904785156,1455903285.56179738044738769531,4312
235,1455903285.6346988677978515625,1455903285.6347198486328125,4296
236,1455903285.70761275291442871094,1455903285.70763611793518066406,4296
237,1455903285.78038239479064941406,1455903285.78040242195129394531,4296
238,1455903285.85351634025573730469,1455903285.85355472564697265625,4296
239,1455903285.92666983604431152344,1455903285.92669010162353515625,4304
240,1455903285.99960613250732421875,1455903285.9996280670166015625,4320
241,1455903286.07318043708801269531,1455903286.0732212066650390625,4336
242,1455903286.14603400230407714844,1455903286.14607596397399902344,4360
243,1455903286.21889448165893554688,1455903286.21893215179443359375,4384
244,1455903286.29184365272521972656,1455903286.29188179969787597656,4416
245,1455903286.36487865447998046875,1455903286.36489939689636230469,4448
246,1455903286.43810534477233886719,1455903286.43812584877014160156,4488
247,1455903286.51094365119934082031,1455903286.51096415519714355469,4536
248,1455903286.58408784866333007812,1455903286.58410739898681640625,4584
249,1455903286.65698528289794921875,1455903286.65700650215148925781,4632
250,1455903286.73002719879150390625,1455903286.73004746437072753906,4688
251,1455903286.802783966064453125,1455903286.80280542373657226562,4744
252,1455903286.87601494789123535156,1455903286.87603449821472167969,4808
253,1455903286.94915056228637695312,1455903286.94917082786560058594,4880
254,1455903287.02244091033935546875,1455903287.02246141433715820312,4944
255,1455903287.09562730789184570312,1455903287.09566807746887207031,5016
256,1455903287.16953539848327636719,1455903287.16957449913024902344,5096
257,1455903287.24255108833312988281,1455903287.24258947372436523438,5176
258,1455903287.31533789634704589844,1455903287.31535840034484863281,5256
259,1455903287.3885364532470703125,1455903287.38858389854431152344,5336
260,1455903287.46150135993957519531,1455903287.4615230560302734375,5416
261,1455903287.53416466712951660156,1455903287.53418707847595214844,5504
262,1455903287.60693359375,1455903287.60695576667785644531,5592
263,1455903287.68009400367736816406,1455903287.68013215065002441406,5680
264,1455903287.75313544273376464844,1455903287.75317287445068359375,5768
265,1455903287.8262271881103515625,1455903287.82624506950378417969,5864
266,1455903287.89946126937866210938,1455903287.89948391914367675781,5952
267,1455903287.97241449356079101562,1455903287.97243452072143554688,6048
268,1455903288.04564571380615234375,1455903288.045684814453125,6136
269,1455903288.11863303184509277344,1455903288.11865377426147460938,6224
270,1455903288.19118905067443847656,1455903288.19122552871704101562,6320
271,1455903288.264369964599609375,1455903288.26440310478210449219,6408
272,1455903288.33746218681335449219,1455903288.33750271797180175781,6496
273,1455903288.41073489189147949219,1455903288.41077280044555664062,6592
274,1455903288.48368573188781738281,1455903288.48370671272277832031,6672
275,1455903288.55668616294860839844,1455903288.55670714378356933594,6760
276,1455903288.62965059280395507812,1455903288.6296863555908203125,6848
