id, time (s), size (bits)
0,1455642799.97915935516357421875,224
1,1455642800.02848768234252929688,224
2,1455642800.09218525886535644531,224
3,1455642800.12874674797058105469,224
4,1455642800.17867755889892578125,224
5,1455642800.22867321968078613281,224
6,1455642800.27858233451843261719,232
7,1455642800.32904052734375,232
8,1455642800.37906551361083984375,232
9,1455642800.42866945266723632812,232
10,1455642800.47900176048278808594,232
11,1455642800.52855181694030761719,240
12,1455642800.57933831214904785156,240
13,1455642800.62922120094299316406,240
14,1455642800.67960190773010253906,240
15,1455642800.72805666923522949219,240
16,1455642800.77963876724243164062,248
17,1455642800.82862710952758789062,248
18,1455642800.87819552421569824219,248
19,1455642800.92852640151977539062,248
20,1455642800.97911119461059570312,248
21,1455642801.0283718109130859375,256
22,1455642801.0791645050048828125,256
23,1455642801.12895560264587402344,256
24,1455642801.17858815193176269531,256
25,1455642801.22918081283569335938,256
26,1455642801.27821326255798339844,264
27,1455642801.32876873016357421875,264
28,1455642801.37866973876953125,264
29,1455642801.42814278602600097656,264
30,1455642801.47893524169921875,264
31,1455642801.52836847305297851562,272
32,1455642801.5787258148193359375,272
33,1455642801.62840414047241210938,272
34,1455642801.68976449966430664062,272
35,1455642801.72852754592895507812,272
36,1455642801.78666472434997558594,280
37,1455642801.82915186882019042969,280
38,1455642801.88080811500549316406,280
39,1455642801.930690765380859375,280
40,1455642801.97864747047424316406,280
41,1455642802.02928805351257324219,280
42,1455642802.07842946052551269531,288
43,1455642802.12819242477416992188,288
44,1455642802.17836427688598632812,288
45,1455642802.22805905342102050781,288
46,1455642802.27800822257995605469,288
47,1455642802.32881498336791992188,288
48,1455642802.3786563873291015625,288
49,1455642802.42860293388366699219,296
50,1455642802.47896742820739746094,296
51,1455642802.52866721153259277344,296
52,1455642802.57837843894958496094,296
53,1455642802.62818145751953125,296
54,1455642802.67818856239318847656,296
55,1455642802.73069310188293457031,296
56,1455642802.78495287895202636719,296
57,1455642802.83161234855651855469,296
58,1455642802.87805247306823730469,296
59,1455642802.92897295951843261719,296
60,1455642802.97886776924133300781,296
61,1455642803.02874517440795898438,296
62,1455642803.07863450050354003906,296
63,1455642803.1289043426513671875,296
64,1455642803.17830228805541992188,296
65,1455642803.22844862937927246094,296
66,1455642803.27861738204956054688,296
67,1455642803.32878589630126953125,296
68,1455642803.37900686264038085938,296
69,1455642803.42815709114074707031,296
70,1455642803.47897386550903320312,296
71,1455642803.52844715118408203125,296
72,1455642803.5790576934814453125,296
73,1455642803.62890505790710449219,296
74,1455642803.67854380607604980469,296
75,1455642803.728717803955078125,296
76,1455642803.78048086166381835938,296
77,1455642803.82877421379089355469,296
78,1455642803.87833571434020996094,296
79,1455642803.92896127700805664062,296
80,1455642803.97928690910339355469,296
81,1455642804.02935791015625,296
82,1455642804.08157873153686523438,296
83,1455642804.12915468215942382812,288
84,1455642804.178264617919921875,288
85,1455642804.23177623748779296875,288
86,1455642804.27913665771484375,288
87,1455642804.32806539535522460938,288
88,1455642804.37874388694763183594,288
89,1455642804.42868447303771972656,288
90,1455642804.47843098640441894531,280
91,1455642804.5397701263427734375,280
92,1455642804.57975029945373535156,280
93,1455642804.62921857833862304688,280
94,1455642804.67946267127990722656,280
95,1455642804.728649139404296875,280
96,1455642804.778347015380859375,272
97,1455642804.82836461067199707031,272
98,1455642804.88008928298950195312,272
99,1455642804.93113183975219726562,272
100,1455642804.97890973091125488281,272
101,1455642805.02884769439697265625,264
102,1455642805.07879734039306640625,264
103,1455642805.128459930419921875,264
104,1455642805.17903971672058105469,264
105,1455642805.22897672653198242188,264
106,1455642805.27880334854125976562,256
107,1455642805.32903432846069335938,256
108,1455642805.37944698333740234375,256
109,1455642805.42856764793395996094,256
110,1455642805.47855544090270996094,256
111,1455642805.53168344497680664062,248
112,1455642805.57796978950500488281,248
113,1455642805.62896585464477539062,248
114,1455642805.67963743209838867188,248
115,1455642805.72818088531494140625,248
116,1455642805.77901458740234375,240
117,1455642805.82865190505981445312,240
118,1455642805.87958312034606933594,240
119,1455642805.92839169502258300781,240
120,1455642805.97917771339416503906,240
121,1455642806.02846431732177734375,232
122,1455642806.07870554924011230469,232
123,1455642806.12853670120239257812,232
124,1455642806.178241729736328125,232
125,1455642806.22890400886535644531,232
126,1455642806.27833604812622070312,224
127,1455642806.32832980155944824219,224
128,1455642806.37881422042846679688,224
129,1455642806.42938470840454101562,224
130,1455642806.47844409942626953125,224
131,1455642806.5286922454833984375,224
132,1455642806.57835698127746582031,216
133,1455642806.62827134132385253906,216
134,1455642806.67829132080078125,216
135,1455642806.72954106330871582031,216
136,1455642806.77996277809143066406,216
137,1455642806.82944941520690917969,216
138,1455642806.87819266319274902344,216
139,1455642806.92918443679809570312,208
140,1455642806.97914862632751464844,208
141,1455642807.03025650978088378906,208
142,1455642807.07981443405151367188,208
143,1455642807.12941122055053710938,208
144,1455642807.17859816551208496094,208
145,1455642807.22864103317260742188,208
146,1455642807.28593873977661132812,208
147,1455642807.32932019233703613281,208
148,1455642807.37903189659118652344,208
149,1455642807.42842984199523925781,208
150,1455642807.47856855392456054688,208
151,1455642807.53013134002685546875,208
152,1455642807.57957530021667480469,208
153,1455642807.63134098052978515625,208
154,1455642807.67943358421325683594,208
155,1455642807.72935581207275390625,208
156,1455642807.77927923202514648438,208
157,1455642807.82896947860717773438,208
158,1455642807.87998223304748535156,208
159,1455642807.93041586875915527344,208
160,1455642807.97929263114929199219,208
161,1455642808.0293331146240234375,208
162,1455642808.07912588119506835938,208
163,1455642808.12977480888366699219,208
164,1455642808.1781520843505859375,208
165,1455642808.22994017601013183594,208
166,1455642808.27939057350158691406,208
167,1455642808.33030915260314941406,208
168,1455642808.37901973724365234375,208
169,1455642808.42891740798950195312,208
170,1455642808.47907400131225585938,208
171,1455642808.53042864799499511719,208
172,1455642808.57921862602233886719,208
173,1455642808.63032126426696777344,216
174,1455642808.67971086502075195312,216
175,1455642808.72940516471862792969,216
176,1455642808.77984309196472167969,216
177,1455642808.8295803070068359375,216
178,1455642808.87921667098999023438,216
179,1455642808.92972397804260253906,216
180,1455642808.97955060005187988281,224
181,1455642809.0292339324951171875,224
182,1455642809.07870960235595703125,224
183,1455642809.129856109619140625,224
184,1455642809.17892885208129882812,224
185,1455642809.22988176345825195312,224
186,1455642809.27847719192504882812,232
187,1455642809.33008432388305664062,232
188,1455642809.37895178794860839844,232
189,1455642809.42965364456176757812,232
190,1455642809.47920203208923339844,232
191,1455642809.529140472412109375,240
192,1455642809.57973432540893554688,240
193,1455642809.62927842140197753906,240
194,1455642809.67996644973754882812,240
195,1455642809.72924685478210449219,240
196,1455642809.77872967720031738281,248
197,1455642809.82908868789672851562,248
198,1455642809.87977480888366699219,248
199,1455642809.92951130867004394531,248
200,1455642809.97936367988586425781,248
201,1455642810.03047490119934082031,256
202,1455642810.0794525146484375,256
203,1455642810.12980628013610839844,256
204,1455642810.17869472503662109375,256
205,1455642810.22930121421813964844,256
206,1455642810.279815673828125,264
207,1455642810.32966184616088867188,264
208,1455642810.37999677658081054688,264
209,1455642810.42988228797912597656,264
210,1455642810.47944903373718261719,264
211,1455642810.52901363372802734375,272
212,1455642810.58021473884582519531,272
213,1455642810.62932682037353515625,272
214,1455642810.67960190773010253906,272
215,1455642810.73075985908508300781,272
216,1455642810.77898454666137695312,280
217,1455642810.82914209365844726562,280
218,1455642810.87927699089050292969,280
219,1455642810.9282054901123046875,280
220,1455642810.97906422615051269531,280
221,1455642811.02904343605041503906,280
222,1455642811.0797481536865234375,288
223,1455642811.129970550537109375,288
224,1455642811.17899155616760253906,288
225,1455642811.229175567626953125,288
226,1455642811.27892279624938964844,288
227,1455642811.32879304885864257812,288
228,1455642811.37897801399230957031,288
229,1455642811.43112921714782714844,296
230,1455642811.481212615966796875,296
231,1455642811.52860498428344726562,296
232,1455642811.57804512977600097656,296
233,1455642811.62848806381225585938,296
234,1455642811.67828440666198730469,296
235,1455642811.73117136955261230469,296
236,1455642811.77900958061218261719,296
237,1455642811.83117604255676269531,296
238,1455642811.87849020957946777344,296
239,1455642811.9288311004638671875,296
240,1455642811.97870182991027832031,296
241,1455642812.028018951416015625,296
242,1455642812.07890987396240234375,296
243,1455642812.129497528076171875,296
244,1455642812.1796512603759765625,296
245,1455642812.22889614105224609375,296
246,1455642812.27900218963623046875,296
247,1455642812.32875347137451171875,296
248,1455642812.38006043434143066406,296
249,1455642812.42845368385314941406,296
250,1455642812.47899150848388671875,296
251,1455642812.52876043319702148438,296
252,1455642812.57911944389343261719,296
253,1455642812.63066530227661132812,296
254,1455642812.67917871475219726562,296
255,1455642812.72924351692199707031,296
256,1455642812.78520298004150390625,296
257,1455642812.82816028594970703125,296
258,1455642812.87799048423767089844,296
259,1455642812.92812561988830566406,296
260,1455642812.97797751426696777344,296
261,1455642813.02884721755981445312,296
262,1455642813.07976746559143066406,296
263,1455642813.12890124320983886719,288
264,1455642813.17905688285827636719,288
265,1455642813.22918772697448730469,288
266,1455642813.2801876068115234375,288
267,1455642813.32870841026306152344,288
268,1455642813.37903833389282226562,288
269,1455642813.42942523956298828125,288
270,1455642813.47901678085327148438,280
271,1455642813.52936601638793945312,280
272,1455642813.57877469062805175781,280
273,1455642813.62922739982604980469,280
274,1455642813.679241180419921875,280
275,1455642813.72951340675354003906,280
276,1455642813.7783527374267578125,272
277,1455642813.828216552734375,272
278,1455642813.87852430343627929688,272
279,1455642813.93033456802368164062,272
280,1455642813.98550963401794433594,272
281,1455642814.03045582771301269531,264
282,1455642814.07904171943664550781,264
283,1455642814.12889266014099121094,264
284,1455642814.17943787574768066406,264
285,1455642814.22923374176025390625,264
286,1455642814.27940464019775390625,256
287,1455642814.32904744148254394531,256
288,1455642814.37926483154296875,256
289,1455642814.42911839485168457031,256
290,1455642814.47930884361267089844,256
291,1455642814.52899909019470214844,248
292,1455642814.57973361015319824219,248
293,1455642814.63153839111328125,248
294,1455642814.67897939682006835938,248
295,1455642814.72900056838989257812,248
296,1455642814.77940583229064941406,240
297,1455642814.82832455635070800781,240
298,1455642814.87848663330078125,240
299,1455642814.9282989501953125,240
300,1455642814.9785518646240234375,240
301,1455642815.02805018424987792969,232
302,1455642815.07953739166259765625,232
303,1455642815.12954592704772949219,232
304,1455642815.18006038665771484375,232
305,1455642815.22928214073181152344,232
306,1455642815.28009510040283203125,224
307,1455642815.32937383651733398438,224
308,1455642815.37965035438537597656,224
309,1455642815.42933440208435058594,224
310,1455642815.4791278839111328125,224
311,1455642815.530323028564453125,224
312,1455642815.5787982940673828125,216
313,1455642815.63063549995422363281,216
314,1455642815.68007731437683105469,216
315,1455642815.72971463203430175781,216
316,1455642815.77980875968933105469,216
317,1455642815.82927942276000976562,216
318,1455642815.88020777702331542969,216
319,1455642815.929195404052734375,208
320,1455642815.98059701919555664062,208
321,1455642816.02907609939575195312,208
322,1455642816.08032083511352539062,208
323,1455642816.12933230400085449219,208
324,1455642816.17943263053894042969,208
325,1455642816.22907376289367675781,208
326,1455642816.27924680709838867188,208
327,1455642816.32902264595031738281,208
328,1455642816.37938594818115234375,208
329,1455642816.42935466766357421875,208
330,1455642816.47927880287170410156,208
331,1455642816.52892708778381347656,208
332,1455642816.57971048355102539062,208
333,1455642816.62935853004455566406,208
334,1455642816.67970252037048339844,208
335,1455642816.72942662239074707031,208
336,1455642816.78069925308227539062,208
337,1455642816.82854819297790527344,208
338,1455642816.88022899627685546875,208
339,1455642816.92865419387817382812,208
340,1455642816.97920656204223632812,208
341,1455642817.02939510345458984375,208
342,1455642817.07963299751281738281,208
343,1455642817.12910127639770507812,208
344,1455642817.17871642112731933594,208
345,1455642817.22940897941589355469,208
346,1455642817.27927374839782714844,208
347,1455642817.33016300201416015625,208
348,1455642817.37905907630920410156,208
349,1455642817.42980980873107910156,208
350,1455642817.47932696342468261719,208
351,1455642817.52926540374755859375,208
352,1455642817.57831168174743652344,208
353,1455642817.62892413139343261719,216
354,1455642817.68002438545227050781,216
355,1455642817.72896599769592285156,216
356,1455642817.78039813041687011719,216
357,1455642817.82879614830017089844,216
358,1455642817.87996363639831542969,216
359,1455642817.92980670928955078125,216
360,1455642817.97953128814697265625,224
361,1455642818.02901339530944824219,224
362,1455642818.08065938949584960938,224
363,1455642818.12988567352294921875,224
364,1455642818.1789913177490234375,224
365,1455642818.22987127304077148438,224
366,1455642818.27937293052673339844,232
367,1455642818.33001422882080078125,232
368,1455642818.37994980812072753906,232
369,1455642818.42939281463623046875,232
370,1455642818.47922492027282714844,232
371,1455642818.52922344207763671875,240
372,1455642818.57933306694030761719,240
373,1455642818.62841749191284179688,240
374,1455642818.68044829368591308594,240
375,1455642818.72876787185668945312,240
376,1455642818.77902173995971679688,248
377,1455642818.82902550697326660156,248
378,1455642818.87950015068054199219,248
379,1455642818.92938852310180664062,248
380,1455642818.9794864654541015625,248
381,1455642819.02950811386108398438,256
382,1455642819.08055663108825683594,256
383,1455642819.12966418266296386719,256
384,1455642819.17891860008239746094,256
385,1455642819.22975778579711914062,256
386,1455642819.27936148643493652344,264
387,1455642819.32962179183959960938,264
388,1455642819.37958288192749023438,264
389,1455642819.4293193817138671875,264
390,1455642819.47955822944641113281,264
391,1455642819.52950406074523925781,272
392,1455642819.58025670051574707031,272
393,1455642819.62900972366333007812,272
394,1455642819.67931699752807617188,272
395,1455642819.7304019927978515625,272
396,1455642819.77823948860168457031,280
397,1455642819.82931113243103027344,280
398,1455642819.88065409660339355469,280
399,1455642819.92879247665405273438,280
400,1455642819.97846388816833496094,280
401,1455642820.036029815673828125,280
402,1455642820.07880091667175292969,288
403,1455642820.12918925285339355469,288
404,1455642820.17952179908752441406,288
405,1455642820.22922444343566894531,288
406,1455642820.279087066650390625,288
407,1455642820.32877349853515625,288
408,1455642820.37865400314331054688,288
409,1455642820.43039917945861816406,296
410,1455642820.479961395263671875,296
411,1455642820.53043889999389648438,296
412,1455642820.57890963554382324219,296
413,1455642820.62871694564819335938,296
414,1455642820.68161249160766601562,296
415,1455642820.72874045372009277344,296
416,1455642820.77845621109008789062,296
417,1455642820.8284893035888671875,296
418,1455642820.87818455696105957031,296
419,1455642820.93143868446350097656,296
420,1455642820.97876691818237304688,296
421,1455642821.02852702140808105469,296
422,1455642821.07926082611083984375,296
423,1455642821.12976026535034179688,296
424,1455642821.17909550666809082031,296
425,1455642821.22939658164978027344,296
426,1455642821.27928805351257324219,296
427,1455642821.32851552963256835938,296
428,1455642821.37846493721008300781,296
429,1455642821.42805027961730957031,296
430,1455642821.47901058197021484375,296
431,1455642821.5288906097412109375,296
432,1455642821.57848858833312988281,296
433,1455642821.6285228729248046875,296
434,1455642821.67931628227233886719,296
435,1455642821.72933673858642578125,296
436,1455642821.77887201309204101562,296
437,1455642821.83010721206665039062,296
438,1455642821.87909269332885742188,296
439,1455642821.93949770927429199219,296
440,1455642821.97906970977783203125,296
441,1455642822.02853703498840332031,296
442,1455642822.07956266403198242188,296
443,1455642822.12900614738464355469,288
444,1455642822.17983222007751464844,288
445,1455642822.22827291488647460938,288
446,1455642822.28476262092590332031,288
447,1455642822.32968950271606445312,288
448,1455642822.38036489486694335938,288
449,1455642822.429431915283203125,288
450,1455642822.48065876960754394531,280
451,1455642822.52942109107971191406,280
452,1455642822.58081007003784179688,280
453,1455642822.62888836860656738281,280
454,1455642822.67851853370666503906,280
455,1455642822.72873353958129882812,280
456,1455642822.778713226318359375,272
457,1455642822.82882976531982421875,272
458,1455642822.87862062454223632812,272
459,1455642822.92862153053283691406,272
460,1455642822.98015427589416503906,272
461,1455642823.03178906440734863281,264
462,1455642823.08022737503051757812,264
463,1455642823.12882304191589355469,264
464,1455642823.18174409866333007812,264
465,1455642823.2281589508056640625,264
466,1455642823.28025889396667480469,256
467,1455642823.33076715469360351562,256
468,1455642823.38052725791931152344,256
469,1455642823.42960357666015625,256
470,1455642823.48092770576477050781,256
471,1455642823.53059792518615722656,248
472,1455642823.57892274856567382812,248
473,1455642823.62873291969299316406,248
474,1455642823.67903590202331542969,248
475,1455642823.73108935356140136719,248
476,1455642823.78033900260925292969,240
477,1455642823.82806181907653808594,240
478,1455642823.879852294921875,240
479,1455642823.92897891998291015625,240
480,1455642823.97906136512756347656,240
481,1455642824.03204607963562011719,232
482,1455642824.08165502548217773438,232
483,1455642824.12866997718811035156,232
484,1455642824.17964673042297363281,232
485,1455642824.22912621498107910156,232
486,1455642824.27937602996826171875,224
487,1455642824.32898402214050292969,224
488,1455642824.37940573692321777344,224
489,1455642824.42872667312622070312,224
490,1455642824.47826218605041503906,224
491,1455642824.52942156791687011719,224
492,1455642824.57891082763671875,216
493,1455642824.62948083877563476562,216
494,1455642824.67919874191284179688,216
495,1455642824.72982883453369140625,216
496,1455642824.78030490875244140625,216
497,1455642824.82916665077209472656,216
498,1455642824.87979888916015625,216
499,1455642824.92893528938293457031,208
500,1455642824.97932529449462890625,208
501,1455642825.02884817123413085938,208
502,1455642825.07937383651733398438,208
503,1455642825.12921547889709472656,208
504,1455642825.17904257774353027344,208
