id, time (s), size (bits)
0,1455642803.14490675926208496094,296
1,1455642803.20012927055358886719,296
2,1455642803.2444744110107421875,296
3,1455642803.29422998428344726562,296
4,1455642803.34481692314147949219,296
5,1455642803.39446949958801269531,296
6,1455642803.44406843185424804688,296
7,1455642803.49394917488098144531,296
8,1455642803.54493927955627441406,296
9,1455642803.59476256370544433594,296
10,1455642803.64480757713317871094,296
11,1455642803.69477367401123046875,296
12,1455642803.77402234077453613281,296
13,1455642803.79637551307678222656,296
14,1455642803.84435677528381347656,296
15,1455642803.89491391181945800781,296
16,1455642803.94443917274475097656,296
17,1455642803.99440765380859375,296
18,1455642804.04824924468994140625,296
19,1455642804.09497237205505371094,288
20,1455642804.156352996826171875,288
21,1455642804.21742463111877441406,288
22,1455642804.24485445022583007812,288
23,1455642804.294887542724609375,288
24,1455642804.34642243385314941406,288
25,1455642804.39406299591064453125,288
26,1455642804.44403147697448730469,288
27,1455642804.49470591545104980469,280
28,1455642804.54459285736083984375,280
29,1455642804.60296583175659179688,280
30,1455642804.64704442024230957031,280
31,1455642804.6945037841796875,280
32,1455642804.74524164199829101562,280
33,1455642804.79455924034118652344,272
34,1455642804.84405493736267089844,272
35,1455642804.89447712898254394531,272
36,1455642804.944217681884765625,272
37,1455642804.99482750892639160156,272
38,1455642805.044525146484375,264
39,1455642805.09544801712036132812,264
40,1455642805.146678924560546875,264
41,1455642805.19499468803405761719,264
42,1455642805.24498653411865234375,264
43,1455642805.29493951797485351562,256
44,1455642805.34470343589782714844,256
45,1455642805.39413380622863769531,256
46,1455642805.44425344467163085938,256
47,1455642805.49524092674255371094,256
48,1455642805.55359315872192382812,248
49,1455642805.59444308280944824219,248
50,1455642805.644313812255859375,248
51,1455642805.695636749267578125,248
52,1455642805.74531197547912597656,240
53,1455642805.79402589797973632812,240
54,1455642805.84500002861022949219,240
55,1455642805.89614963531494140625,240
56,1455642805.94494748115539550781,240
57,1455642805.99485135078430175781,232
58,1455642806.04465222358703613281,232
59,1455642806.09524798393249511719,232
60,1455642806.1446781158447265625,232
61,1455642806.19445824623107910156,232
62,1455642806.24438190460205078125,232
63,1455642806.29396653175354003906,224
64,1455642806.34411573410034179688,224
65,1455642806.39417862892150878906,224
66,1455642806.44754076004028320312,224
67,1455642806.49428248405456542969,224
68,1455642806.54431653022766113281,224
69,1455642806.59442305564880371094,216
70,1455642806.64404273033142089844,216
71,1455642806.69814610481262207031,216
72,1455642806.74584698677062988281,216
73,1455642806.79500102996826171875,216
74,1455642806.84510374069213867188,216
75,1455642806.895172119140625,216
76,1455642806.94505023956298828125,208
77,1455642806.995296478271484375,208
78,1455642807.04432511329650878906,208
79,1455642807.0951213836669921875,208
80,1455642807.14415407180786132812,208
81,1455642807.19495511054992675781,208
82,1455642807.24732208251953125,208
83,1455642807.29451274871826171875,208
84,1455642807.34485363960266113281,208
85,1455642807.39477491378784179688,208
86,1455642807.44779372215270996094,208
87,1455642807.49526882171630859375,208
88,1455642807.54473972320556640625,208
89,1455642807.59492921829223632812,208
90,1455642807.64399647712707519531,208
91,1455642807.69431328773498535156,208
92,1455642807.74433207511901855469,208
93,1455642807.79465126991271972656,208
94,1455642807.84513688087463378906,208
95,1455642807.89483022689819335938,208
96,1455642807.94478583335876464844,208
97,1455642807.99414372444152832031,208
98,1455642808.04429864883422851562,208
99,1455642808.09426546096801757812,208
100,1455642808.14429140090942382812,208
101,1455642808.19478273391723632812,208
102,1455642808.24468111991882324219,208
103,1455642808.2946567535400390625,208
104,1455642808.34472107887268066406,208
105,1455642808.39497351646423339844,208
106,1455642808.44388318061828613281,208
107,1455642808.4946537017822265625,208
108,1455642808.54486966133117675781,208
109,1455642808.59507226943969726562,216
110,1455642808.64784598350524902344,216
111,1455642808.69424510002136230469,216
112,1455642808.74418997764587402344,216
113,1455642808.79452276229858398438,216
114,1455642808.84458994865417480469,216
115,1455642808.89443159103393554688,216
116,1455642808.94481968879699707031,216
117,1455642808.99461865425109863281,224
118,1455642809.04388689994812011719,224
119,1455642809.09432363510131835938,224
120,1455642809.14791393280029296875,224
121,1455642809.19486451148986816406,224
122,1455642809.24784564971923828125,224
123,1455642809.29469990730285644531,232
124,1455642809.34487104415893554688,232
125,1455642809.39386320114135742188,232
126,1455642809.44481682777404785156,232
127,1455642809.49473214149475097656,232
128,1455642809.54402923583984375,240
129,1455642809.59444928169250488281,240
130,1455642809.64431476593017578125,240
131,1455642809.70041489601135253906,240
132,1455642809.74441885948181152344,240
133,1455642809.79493045806884765625,248
134,1455642809.8439464569091796875,248
135,1455642809.90021419525146484375,248
136,1455642809.94482135772705078125,248
137,1455642809.99479770660400390625,248
138,1455642810.04470539093017578125,256
139,1455642810.09438753128051757812,256
140,1455642810.14446353912353515625,256
141,1455642810.19485449790954589844,256
142,1455642810.24422430992126464844,264
143,1455642810.29399013519287109375,264
144,1455642810.3450469970703125,264
145,1455642810.39467525482177734375,264
146,1455642810.44502878189086914062,264
147,1455642810.49516963958740234375,272
148,1455642810.54401993751525878906,272
149,1455642810.5942325592041015625,272
150,1455642810.64459514617919921875,272
151,1455642810.69502997398376464844,272
152,1455642810.74393439292907714844,272
153,1455642810.794567108154296875,280
154,1455642810.84469914436340332031,280
155,1455642810.89445447921752929688,280
156,1455642810.94514679908752441406,280
157,1455642810.99410319328308105469,280
158,1455642811.04496359825134277344,280
159,1455642811.09402990341186523438,288
160,1455642811.14450860023498535156,288
161,1455642811.19452309608459472656,288
162,1455642811.24492406845092773438,288
163,1455642811.29481339454650878906,288
164,1455642811.34395265579223632812,288
165,1455642811.39478230476379394531,288
166,1455642811.44463181495666503906,296
167,1455642811.49737524986267089844,296
168,1455642811.54420185089111328125,296
169,1455642811.59387874603271484375,296
170,1455642811.64483022689819335938,296
171,1455642811.69504785537719726562,296
172,1455642811.74447226524353027344,296
173,1455642811.79704380035400390625,296
174,1455642811.84494090080261230469,296
175,1455642811.89432024955749511719,296
176,1455642811.94679117202758789062,296
177,1455642811.9945735931396484375,296
178,1455642812.04502820968627929688,296
179,1455642812.09460020065307617188,296
180,1455642812.14411664009094238281,296
181,1455642812.19462323188781738281,296
182,1455642812.24501442909240722656,296
183,1455642812.2945404052734375,296
184,1455642812.34489274024963378906,296
185,1455642812.39503955841064453125,296
186,1455642812.44398474693298339844,296
187,1455642812.49460625648498535156,296
188,1455642812.54450106620788574219,296
189,1455642812.59463453292846679688,296
190,1455642812.64696073532104492188,296
191,1455642812.69492006301879882812,296
192,1455642812.74442815780639648438,296
193,1455642812.79525327682495117188,296
194,1455642812.84496474266052246094,296
195,1455642812.89428448677062988281,296
196,1455642812.94508886337280273438,296
197,1455642812.99686837196350097656,296
198,1455642813.04466581344604492188,296
199,1455642813.09475660324096679688,288
200,1455642813.14489626884460449219,288
201,1455642813.19695162773132324219,288
202,1455642813.24432539939880371094,288
203,1455642813.29447436332702636719,288
204,1455642813.34481692314147949219,288
205,1455642813.39480495452880859375,288
206,1455642813.44464373588562011719,288
207,1455642813.49466204643249511719,280
208,1455642813.54474282264709472656,280
209,1455642813.59461808204650878906,280
210,1455642813.64464259147644042969,280
211,1455642813.69454622268676757812,280
212,1455642813.74474358558654785156,280
213,1455642813.79473137855529785156,272
214,1455642813.84446835517883300781,272
215,1455642813.89495587348937988281,272
216,1455642813.94521808624267578125,272
217,1455642813.9944934844970703125,272
218,1455642814.04413437843322753906,264
219,1455642814.09513425827026367188,264
220,1455642814.1451416015625,264
221,1455642814.19411253929138183594,264
222,1455642814.24414849281311035156,264
223,1455642814.2941570281982421875,256
224,1455642814.344722747802734375,256
225,1455642814.39778423309326171875,256
226,1455642814.44486498832702636719,256
227,1455642814.49417829513549804688,256
228,1455642814.54446268081665039062,248
229,1455642814.59428501129150390625,248
230,1455642814.64495992660522460938,248
231,1455642814.69441390037536621094,248
232,1455642814.74460601806640625,240
233,1455642814.79471135139465332031,240
234,1455642814.845142364501953125,240
235,1455642814.89427638053894042969,240
236,1455642814.94473528861999511719,240
237,1455642814.99621129035949707031,232
238,1455642815.0442905426025390625,232
239,1455642815.09433841705322265625,232
240,1455642815.1445407867431640625,232
241,1455642815.1944732666015625,232
242,1455642815.2442722320556640625,232
243,1455642815.29530405998229980469,224
244,1455642815.34427762031555175781,224
245,1455642815.39461398124694824219,224
246,1455642815.4453525543212890625,224
247,1455642815.49510288238525390625,224
248,1455642815.5448551177978515625,224
249,1455642815.59504628181457519531,216
250,1455642815.64501857757568359375,216
251,1455642815.69473934173583984375,216
252,1455642815.74430513381958007812,216
253,1455642815.79397892951965332031,216
254,1455642815.84511423110961914062,216
255,1455642815.89512705802917480469,216
256,1455642815.94489073753356933594,208
257,1455642816.00042438507080078125,208
258,1455642816.04453420639038085938,208
259,1455642816.09465956687927246094,208
260,1455642816.14477419853210449219,208
261,1455642816.1947917938232421875,208
262,1455642816.2440357208251953125,208
263,1455642816.29427289962768554688,208
264,1455642816.34479928016662597656,208
265,1455642816.39420914649963378906,208
266,1455642816.44440436363220214844,208
267,1455642816.49455356597900390625,208
268,1455642816.54390931129455566406,208
269,1455642816.59463477134704589844,208
270,1455642816.64448142051696777344,208
271,1455642816.69460034370422363281,208
272,1455642816.74462890625,208
273,1455642816.79444050788879394531,208
274,1455642816.84453535079956054688,208
275,1455642816.900341033935546875,208
276,1455642816.94500446319580078125,208
277,1455642816.9938526153564453125,208
278,1455642817.04481840133666992188,208
279,1455642817.09477472305297851562,208
280,1455642817.14452195167541503906,208
281,1455642817.19441342353820800781,208
282,1455642817.24510431289672851562,208
283,1455642817.294677734375,208
284,1455642817.34437513351440429688,208
285,1455642817.4002323150634765625,208
286,1455642817.44450640678405761719,208
287,1455642817.49449610710144042969,208
288,1455642817.54479312896728515625,208
289,1455642817.59463143348693847656,216
290,1455642817.64457821846008300781,216
291,1455642817.69503331184387207031,216
292,1455642817.74465918540954589844,216
293,1455642817.79467177391052246094,216
294,1455642817.84463071823120117188,216
295,1455642817.89505839347839355469,216
296,1455642817.94473624229431152344,216
297,1455642817.99485874176025390625,224
298,1455642818.04447031021118164062,224
299,1455642818.09493875503540039062,224
300,1455642818.14782118797302246094,224
301,1455642818.19499254226684570312,224
302,1455642818.2481060028076171875,224
303,1455642818.29421067237854003906,232
304,1455642818.34505391120910644531,232
305,1455642818.39483284950256347656,232
306,1455642818.4503803253173828125,232
307,1455642818.49509596824645996094,232
308,1455642818.54485416412353515625,240
309,1455642818.60067105293273925781,240
310,1455642818.64459466934204101562,240
311,1455642818.70042729377746582031,240
312,1455642818.74424314498901367188,240
313,1455642818.79470276832580566406,248
314,1455642818.8442745208740234375,248
315,1455642818.89403247833251953125,248
316,1455642818.94445490837097167969,248
317,1455642818.99480700492858886719,248
318,1455642819.04433155059814453125,256
319,1455642819.09442090988159179688,256
320,1455642819.14456081390380859375,256
321,1455642819.19465303421020507812,256
322,1455642819.24395227432250976562,264
323,1455642819.29506564140319824219,264
324,1455642819.34421944618225097656,264
325,1455642819.39498925209045410156,264
326,1455642819.44485521316528320312,264
327,1455642819.49534153938293457031,272
328,1455642819.54498839378356933594,272
329,1455642819.59402036666870117188,272
330,1455642819.64424037933349609375,272
331,1455642819.69393682479858398438,272
332,1455642819.74441552162170410156,272
333,1455642819.79434275627136230469,280
334,1455642819.84435534477233886719,280
335,1455642819.89438796043395996094,280
336,1455642819.94460153579711914062,280
337,1455642819.99460053443908691406,280
338,1455642820.04483318328857421875,280
339,1455642820.09448361396789550781,288
340,1455642820.14458775520324707031,288
341,1455642820.19468855857849121094,288
342,1455642820.24453997611999511719,288
343,1455642820.29459476470947265625,288
344,1455642820.3444423675537109375,288
345,1455642820.39463376998901367188,288
346,1455642820.44445347785949707031,296
347,1455642820.49466872215270996094,296
348,1455642820.54432177543640136719,296
349,1455642820.59433341026306152344,296
350,1455642820.64464497566223144531,296
351,1455642820.69435238838195800781,296
352,1455642820.74406147003173828125,296
353,1455642820.79418277740478515625,296
354,1455642820.84497284889221191406,296
355,1455642820.89615583419799804688,296
356,1455642820.94453597068786621094,296
357,1455642820.99437046051025390625,296
358,1455642821.04540681838989257812,296
359,1455642821.09440493583679199219,296
360,1455642821.14456772804260253906,296
361,1455642821.19485020637512207031,296
362,1455642821.24439239501953125,296
363,1455642821.29455542564392089844,296
364,1455642821.3449954986572265625,296
365,1455642821.39451551437377929688,296
366,1455642821.44441938400268554688,296
367,1455642821.49444174766540527344,296
368,1455642821.54419875144958496094,296
369,1455642821.59480762481689453125,296
370,1455642821.64464259147644042969,296
371,1455642821.69554162025451660156,296
372,1455642821.74785327911376953125,296
373,1455642821.79500746726989746094,296
374,1455642821.84749627113342285156,296
375,1455642821.89439487457275390625,296
376,1455642821.94528341293334960938,296
377,1455642821.99614834785461425781,296
378,1455642822.04495978355407714844,296
379,1455642822.09484219551086425781,288
380,1455642822.14462184906005859375,288
381,1455642822.19482278823852539062,288
382,1455642822.24476385116577148438,288
383,1455642822.29474735260009765625,288
384,1455642822.34473943710327148438,288
385,1455642822.39426732063293457031,288
386,1455642822.44453334808349609375,288
387,1455642822.49449443817138671875,280
388,1455642822.5446186065673828125,280
389,1455642822.59443616867065429688,280
390,1455642822.64448237419128417969,280
391,1455642822.69400000572204589844,280
392,1455642822.74502134323120117188,280
393,1455642822.79486107826232910156,272
394,1455642822.84448862075805664062,272
395,1455642822.8941669464111328125,272
396,1455642822.94492483139038085938,272
397,1455642822.99431252479553222656,272
398,1455642823.04491567611694335938,264
399,1455642823.09534382820129394531,264
400,1455642823.143955230712890625,264
401,1455642823.19501638412475585938,264
402,1455642823.24481058120727539062,264
403,1455642823.2946414947509765625,256
404,1455642823.34467244148254394531,256
405,1455642823.39488053321838378906,256
406,1455642823.44459581375122070312,256
407,1455642823.49464821815490722656,256
408,1455642823.54515171051025390625,248
409,1455642823.59496951103210449219,248
410,1455642823.64492940902709960938,248
411,1455642823.69471454620361328125,248
412,1455642823.74389553070068359375,240
413,1455642823.79777193069458007812,240
414,1455642823.84444475173950195312,240
415,1455642823.89425253868103027344,240
416,1455642823.9439067840576171875,240
417,1455642823.99505281448364257812,232
418,1455642824.04420065879821777344,232
419,1455642824.09519934654235839844,232
420,1455642824.14430689811706542969,232
421,1455642824.194370269775390625,232
422,1455642824.24477434158325195312,232
423,1455642824.29489660263061523438,224
424,1455642824.34388208389282226562,224
425,1455642824.39430999755859375,224
426,1455642824.44520139694213867188,224
427,1455642824.49487137794494628906,224
428,1455642824.54519391059875488281,224
429,1455642824.5944232940673828125,216
430,1455642824.64447760581970214844,216
431,1455642824.69397807121276855469,216
432,1455642824.74745798110961914062,216
433,1455642824.79477763175964355469,216
434,1455642824.84437274932861328125,216
435,1455642824.89461946487426757812,216
436,1455642824.9439754486083984375,208
437,1455642824.99465322494506835938,208
438,1455642825.05427384376525878906,208
439,1455642825.09766650199890136719,208
440,1455642825.14469003677368164062,208
441,1455642825.19455981254577636719,208
442,1455642825.24483251571655273438,208
443,1455642825.29461240768432617188,208
444,1455642825.34481072425842285156,208
445,1455642825.39395117759704589844,208
446,1455642825.44448924064636230469,208
447,1455642825.49479699134826660156,208
448,1455642825.543972015380859375,208
449,1455642825.59473252296447753906,208
450,1455642825.64491057395935058594,208
451,1455642825.69391798973083496094,208
452,1455642825.74397730827331542969,208
453,1455642825.79523420333862304688,208
454,1455642825.8446197509765625,208
455,1455642825.89998149871826171875,208
456,1455642825.9446048736572265625,208
457,1455642825.99425530433654785156,208
458,1455642826.04442501068115234375,208
459,1455642826.09463453292846679688,208
460,1455642826.14461946487426757812,208
461,1455642826.1945343017578125,208
462,1455642826.24458980560302734375,208
463,1455642826.29461884498596191406,208
464,1455642826.34441065788269042969,208
465,1455642826.39420390129089355469,208
466,1455642826.44444227218627929688,208
467,1455642826.503719329833984375,208
468,1455642826.544651031494140625,208
469,1455642826.5948085784912109375,216
470,1455642826.64501023292541503906,216
471,1455642826.69518303871154785156,216
472,1455642826.74461674690246582031,216
473,1455642826.7948627471923828125,216
474,1455642826.85033655166625976562,216
475,1455642826.89493298530578613281,216
476,1455642826.94475603103637695312,216
477,1455642826.99435710906982421875,224
478,1455642827.04452490806579589844,224
479,1455642827.09806799888610839844,224
480,1455642827.14510107040405273438,224
481,1455642827.19479036331176757812,224
482,1455642827.24478769302368164062,224
483,1455642827.29447865486145019531,232
484,1455642827.34405374526977539062,232
485,1455642827.39412689208984375,232
486,1455642827.44482135772705078125,232
487,1455642827.49486827850341796875,232
488,1455642827.54475092887878417969,240
489,1455642827.59794664382934570312,240
490,1455642827.64441204071044921875,240
491,1455642827.69510149955749511719,240
492,1455642827.74441742897033691406,240
493,1455642827.79443788528442382812,248
494,1455642827.84406208992004394531,248
495,1455642827.89460802078247070312,248
496,1455642827.94437670707702636719,248
497,1455642827.99484467506408691406,248
498,1455642828.04489159584045410156,256
499,1455642828.09421181678771972656,256
500,1455642828.14426088333129882812,256
501,1455642828.19462323188781738281,256
502,1455642828.24477744102478027344,264
503,1455642828.29451513290405273438,264
504,1455642828.3443546295166015625,264
