id, time (s), size (bits)
0,1455642798.33059167861938476562,208
1,1455642798.380565643310546875,208
2,1455642798.43005490303039550781,208
3,1455642798.48092174530029296875,208
4,1455642798.53068089485168457031,208
5,1455642798.58027124404907226562,208
6,1455642798.63073253631591796875,208
7,1455642798.68008947372436523438,208
8,1455642798.73087430000305175781,208
9,1455642798.78044843673706054688,208
10,1455642798.83005023002624511719,208
11,1455642798.88054919242858886719,208
12,1455642798.931186676025390625,208
13,1455642798.980682373046875,208
14,1455642799.03023529052734375,208
15,1455642799.08112668991088867188,208
16,1455642799.13061237335205078125,208
17,1455642799.180416107177734375,208
18,1455642799.23091030120849609375,208
19,1455642799.28125357627868652344,208
20,1455642799.33077740669250488281,208
21,1455642799.38066172599792480469,208
22,1455642799.43008160591125488281,208
23,1455642799.48096561431884765625,208
24,1455642799.53058886528015136719,208
25,1455642799.58009934425354003906,208
26,1455642799.63090276718139648438,216
27,1455642799.68089556694030761719,216
28,1455642799.73053002357482910156,216
29,1455642799.78017568588256835938,216
30,1455642799.83127117156982421875,216
31,1455642799.88089728355407714844,216
32,1455642799.93053269386291503906,216
33,1455642799.98035883903503417969,224
34,1455642800.03071761131286621094,224
35,1455642800.080745697021484375,224
36,1455642800.13035345077514648438,224
37,1455642800.18130087852478027344,224
38,1455642800.23076105117797851562,224
39,1455642800.28089404106140136719,232
40,1455642800.33038043975830078125,232
41,1455642800.3814697265625,232
42,1455642800.43117690086364746094,232
43,1455642800.48064708709716796875,232
44,1455642800.5310268402099609375,240
45,1455642800.58052587509155273438,240
46,1455642800.6307544708251953125,240
47,1455642800.68023681640625,240
48,1455642800.73112463951110839844,240
49,1455642800.78071641921997070312,248
50,1455642800.83032464981079101562,248
51,1455642800.88088583946228027344,248
52,1455642800.93040823936462402344,248
53,1455642800.98009085655212402344,248
54,1455642801.03083968162536621094,256
55,1455642801.08070731163024902344,256
56,1455642801.13079357147216796875,256
57,1455642801.18040561676025390625,256
58,1455642801.23013234138488769531,256
59,1455642801.28115820884704589844,264
60,1455642801.33061051368713378906,264
61,1455642801.38040661811828613281,264
62,1455642801.43108606338500976562,264
63,1455642801.48170542716979980469,264
64,1455642801.53045034408569335938,272
65,1455642801.58003830909729003906,272
66,1455642801.63061118125915527344,272
67,1455642801.68022274971008300781,272
68,1455642801.73105859756469726562,272
69,1455642801.78075671195983886719,280
70,1455642801.83026361465454101562,280
71,1455642801.88105559349060058594,280
72,1455642801.93180203437805175781,280
73,1455642801.98720383644104003906,280
74,1455642802.03064441680908203125,280
75,1455642802.08127808570861816406,288
76,1455642802.13079094886779785156,288
77,1455642802.18596768379211425781,288
78,1455642802.23065161705017089844,288
79,1455642802.28105998039245605469,288
80,1455642802.33081007003784179688,288
81,1455642802.38026571273803710938,288
82,1455642802.43094658851623535156,296
83,1455642802.48033213615417480469,296
84,1455642802.53099322319030761719,296
85,1455642802.58040642738342285156,296
86,1455642802.6310596466064453125,296
87,1455642802.68101072311401367188,296
88,1455642802.73049616813659667969,296
89,1455642802.78016376495361328125,296
90,1455642802.83101677894592285156,296
91,1455642802.880672454833984375,296
92,1455642802.93000197410583496094,296
93,1455642802.99057674407958984375,296
94,1455642803.03120660781860351562,296
95,1455642803.08077144622802734375,296
96,1455642803.130466461181640625,296
97,1455642803.18110322952270507812,296
98,1455642803.23084712028503417969,296
99,1455642803.28070878982543945312,296
100,1455642803.33057117462158203125,296
101,1455642803.38011240959167480469,296
102,1455642803.43101477622985839844,296
103,1455642803.48227381706237792969,296
104,1455642803.53079986572265625,296
105,1455642803.58067226409912109375,296
106,1455642803.63062620162963867188,296
107,1455642803.68065571784973144531,296
108,1455642803.73017120361328125,296
109,1455642803.78109002113342285156,296
110,1455642803.83084082603454589844,296
111,1455642803.88068270683288574219,296
112,1455642803.93057322502136230469,296
113,1455642803.98038887977600097656,296
114,1455642804.04248738288879394531,296
115,1455642804.08109259605407714844,296
116,1455642804.13057827949523925781,288
117,1455642804.18002843856811523438,288
118,1455642804.23072171211242675781,288
119,1455642804.28040313720703125,288
120,1455642804.33115386962890625,288
121,1455642804.3805561065673828125,288
122,1455642804.43131995201110839844,288
123,1455642804.480876922607421875,280
124,1455642804.5309906005859375,280
125,1455642804.58098959922790527344,280
126,1455642804.63064265251159667969,280
127,1455642804.68067169189453125,280
128,1455642804.73100233078002929688,280
129,1455642804.78051733970642089844,272
130,1455642804.83111310005187988281,272
131,1455642804.88071703910827636719,272
132,1455642804.93024587631225585938,272
133,1455642804.98086643218994140625,272
134,1455642805.03069043159484863281,264
135,1455642805.08052706718444824219,264
136,1455642805.13065361976623535156,264
137,1455642805.18023061752319335938,264
138,1455642805.23139190673828125,264
139,1455642805.2800197601318359375,256
140,1455642805.33091807365417480469,256
141,1455642805.38073682785034179688,256
142,1455642805.43024444580078125,256
143,1455642805.48303508758544921875,256
144,1455642805.53078317642211914062,248
145,1455642805.58109927177429199219,248
146,1455642805.63080692291259765625,248
147,1455642805.68088197708129882812,248
148,1455642805.73226094245910644531,248
149,1455642805.78392958641052246094,240
150,1455642805.83172202110290527344,240
151,1455642805.88038086891174316406,240
152,1455642805.93008136749267578125,240
153,1455642805.9807300567626953125,240
154,1455642806.03067302703857421875,232
155,1455642806.08071422576904296875,232
156,1455642806.13054108619689941406,232
157,1455642806.18003439903259277344,232
158,1455642806.23424506187438964844,232
159,1455642806.28091740608215332031,224
160,1455642806.33017992973327636719,224
161,1455642806.380916595458984375,224
162,1455642806.43045949935913085938,224
163,1455642806.48115253448486328125,224
164,1455642806.53101468086242675781,224
165,1455642806.58075594902038574219,216
166,1455642806.6315460205078125,216
167,1455642806.68114495277404785156,216
168,1455642806.73097872734069824219,216
169,1455642806.78051495552062988281,216
170,1455642806.83029651641845703125,216
171,1455642806.88098216056823730469,216
172,1455642806.93089413642883300781,208
173,1455642806.98058867454528808594,208
174,1455642807.03052544593811035156,208
175,1455642807.08011460304260253906,208
176,1455642807.13091206550598144531,208
177,1455642807.18083047866821289062,208
178,1455642807.23091220855712890625,208
179,1455642807.27993917465209960938,208
180,1455642807.33292174339294433594,208
181,1455642807.38069081306457519531,208
182,1455642807.43029165267944335938,208
183,1455642807.48111128807067871094,208
184,1455642807.530918121337890625,208
185,1455642807.58070659637451171875,208
186,1455642807.63035678863525390625,208
187,1455642807.68100404739379882812,208
188,1455642807.73003864288330078125,208
189,1455642807.78073740005493164062,208
190,1455642807.83061552047729492188,208
191,1455642807.88049173355102539062,208
192,1455642807.93030381202697753906,208
193,1455642807.98100113868713378906,208
194,1455642808.03084659576416015625,208
195,1455642808.08060598373413085938,208
196,1455642808.13040280342102050781,208
197,1455642808.18033576011657714844,208
198,1455642808.23105335235595703125,208
199,1455642808.2809543609619140625,208
200,1455642808.33067846298217773438,208
201,1455642808.38054108619689941406,208
202,1455642808.43033766746520996094,208
203,1455642808.48120999336242675781,208
204,1455642808.53090190887451171875,208
205,1455642808.58109974861145019531,208
206,1455642808.63097405433654785156,216
207,1455642808.68067836761474609375,216
208,1455642808.73055624961853027344,216
209,1455642808.780300140380859375,216
210,1455642808.83115100860595703125,216
211,1455642808.88080239295959472656,216
212,1455642808.93076229095458984375,216
213,1455642808.98041558265686035156,224
214,1455642809.03002882003784179688,224
215,1455642809.08092832565307617188,224
216,1455642809.13052988052368164062,224
217,1455642809.1803951263427734375,224
218,1455642809.23105835914611816406,224
219,1455642809.28089499473571777344,232
220,1455642809.33058214187622070312,232
221,1455642809.38050937652587890625,232
222,1455642809.43022680282592773438,232
223,1455642809.48088860511779785156,232
224,1455642809.53076124191284179688,240
225,1455642809.58040785789489746094,240
226,1455642809.63029646873474121094,240
227,1455642809.68002271652221679688,240
228,1455642809.73085474967956542969,240
229,1455642809.78054881095886230469,248
230,1455642809.83046865463256835938,248
231,1455642809.88016366958618164062,248
232,1455642809.9309711456298828125,248
233,1455642809.98082709312438964844,248
234,1455642810.03056573867797851562,256
235,1455642810.08043885231018066406,256
236,1455642810.13001465797424316406,256
237,1455642810.18118119239807128906,256
238,1455642810.23085808753967285156,256
239,1455642810.28083205223083496094,264
240,1455642810.33054280281066894531,264
241,1455642810.38015437126159667969,264
242,1455642810.431079864501953125,264
243,1455642810.48081374168395996094,264
244,1455642810.5306758880615234375,272
245,1455642810.58036947250366210938,272
246,1455642810.631298065185546875,272
247,1455642810.68107581138610839844,272
248,1455642810.73103857040405273438,272
249,1455642810.78081536293029785156,280
250,1455642810.83084225654602050781,280
251,1455642810.88077688217163085938,280
252,1455642810.93096041679382324219,280
253,1455642810.98082756996154785156,280
254,1455642811.03247141838073730469,280
255,1455642811.08042931556701660156,288
256,1455642811.1300945281982421875,288
257,1455642811.18088674545288085938,288
258,1455642811.23059058189392089844,288
259,1455642811.28039813041687011719,288
260,1455642811.33036279678344726562,288
261,1455642811.38037753105163574219,288
262,1455642811.43038964271545410156,296
263,1455642811.480640411376953125,296
264,1455642811.53054761886596679688,296
265,1455642811.58021974563598632812,296
266,1455642811.63099551200866699219,296
267,1455642811.68082880973815917969,296
268,1455642811.73031187057495117188,296
269,1455642811.78029966354370117188,296
270,1455642811.83080649375915527344,296
271,1455642811.88103175163269042969,296
272,1455642811.93427610397338867188,296
273,1455642811.98120880126953125,296
274,1455642812.03304004669189453125,296
275,1455642812.0811252593994140625,296
276,1455642812.13078331947326660156,296
277,1455642812.18063259124755859375,296
278,1455642812.23049211502075195312,296
279,1455642812.28013825416564941406,296
280,1455642812.33005118370056152344,296
281,1455642812.38070774078369140625,296
282,1455642812.43075227737426757812,296
283,1455642812.48041224479675292969,296
284,1455642812.53091311454772949219,296
285,1455642812.58340430259704589844,296
286,1455642812.63123250007629394531,296
287,1455642812.68014430999755859375,296
288,1455642812.73017978668212890625,296
289,1455642812.7800731658935546875,296
290,1455642812.83171796798706054688,296
291,1455642812.88077330589294433594,296
292,1455642812.93136715888977050781,296
293,1455642812.98048639297485351562,296
294,1455642813.03029513359069824219,296
295,1455642813.08111238479614257812,296
296,1455642813.13090276718139648438,288
297,1455642813.18053936958312988281,288
298,1455642813.23061895370483398438,288
299,1455642813.280269622802734375,288
300,1455642813.33109951019287109375,288
301,1455642813.38073754310607910156,288
302,1455642813.43070197105407714844,288
303,1455642813.48051476478576660156,280
304,1455642813.53029847145080566406,280
305,1455642813.58037066459655761719,280
306,1455642813.63094377517700195312,280
307,1455642813.6823177337646484375,280
308,1455642813.73016405105590820312,280
309,1455642813.78139352798461914062,272
310,1455642813.83289575576782226562,272
311,1455642813.88065791130065917969,272
312,1455642813.93056488037109375,272
313,1455642813.98065209388732910156,272
314,1455642814.03111481666564941406,264
315,1455642814.08026027679443359375,264
316,1455642814.13038992881774902344,264
317,1455642814.18043065071105957031,264
318,1455642814.23067831993103027344,264
319,1455642814.28084564208984375,256
320,1455642814.33093428611755371094,256
321,1455642814.380901336669921875,256
322,1455642814.43090200424194335938,256
323,1455642814.48103260993957519531,256
324,1455642814.5307979583740234375,248
325,1455642814.58072423934936523438,248
326,1455642814.6322460174560546875,248
327,1455642814.68019556999206542969,248
328,1455642814.73009753227233886719,248
329,1455642814.7828121185302734375,240
330,1455642814.83071064949035644531,240
331,1455642814.88058018684387207031,240
332,1455642814.93061375617980957031,240
333,1455642814.98039531707763671875,240
334,1455642815.03035426139831542969,232
335,1455642815.08109068870544433594,232
336,1455642815.13092589378356933594,232
337,1455642815.18063974380493164062,232
338,1455642815.23039555549621582031,232
339,1455642815.28002715110778808594,224
340,1455642815.33069729804992675781,224
341,1455642815.38064217567443847656,224
342,1455642815.43034315109252929688,224
343,1455642815.48015666007995605469,224
344,1455642815.53083777427673339844,224
345,1455642815.58066916465759277344,216
346,1455642815.63035273551940917969,216
347,1455642815.68127226829528808594,216
348,1455642815.73103427886962890625,216
349,1455642815.78072357177734375,216
350,1455642815.83071827888488769531,216
351,1455642815.88039612770080566406,216
352,1455642815.93024492263793945312,208
353,1455642815.98090505599975585938,208
354,1455642816.03083014488220214844,208
355,1455642816.08056664466857910156,208
356,1455642816.13032579421997070312,208
357,1455642816.18106913566589355469,208
358,1455642816.23068714141845703125,208
359,1455642816.28069090843200683594,208
360,1455642816.33051061630249023438,208
361,1455642816.38036775588989257812,208
362,1455642816.43104887008666992188,208
363,1455642816.48086977005004882812,208
364,1455642816.53060960769653320312,208
365,1455642816.58058834075927734375,208
366,1455642816.63031792640686035156,208
367,1455642816.68102741241455078125,208
368,1455642816.73087930679321289062,208
369,1455642816.78073620796203613281,208
370,1455642816.83062219619750976562,208
371,1455642816.88031077384948730469,208
372,1455642816.93121290206909179688,208
373,1455642816.98083209991455078125,208
374,1455642817.03070497512817382812,208
375,1455642817.08046126365661621094,208
376,1455642817.13006472587585449219,208
377,1455642817.18094301223754882812,208
378,1455642817.23060584068298339844,208
379,1455642817.28048062324523925781,208
380,1455642817.33001375198364257812,208
381,1455642817.38081693649291992188,208
382,1455642817.43057870864868164062,208
383,1455642817.48044633865356445312,208
384,1455642817.53007555007934570312,208
385,1455642817.5807647705078125,208
386,1455642817.630626678466796875,216
387,1455642817.68030643463134765625,216
388,1455642817.73005771636962890625,216
389,1455642817.78080511093139648438,216
390,1455642817.83021688461303710938,216
391,1455642817.88090848922729492188,216
392,1455642817.93082475662231445312,216
393,1455642817.98048877716064453125,224
394,1455642818.02998781204223632812,224
395,1455642818.08082175254821777344,224
396,1455642818.13047146797180175781,224
397,1455642818.18033909797668457031,224
398,1455642818.23100042343139648438,224
399,1455642818.28089356422424316406,232
400,1455642818.33060979843139648438,232
401,1455642818.38049578666687011719,232
402,1455642818.43022012710571289062,232
403,1455642818.48093128204345703125,232
404,1455642818.53077006340026855469,240
405,1455642818.58043074607849121094,240
406,1455642818.63028407096862792969,240
407,1455642818.68108534812927246094,240
408,1455642818.73098444938659667969,240
409,1455642818.78069186210632324219,248
410,1455642818.83057069778442382812,248
411,1455642818.88028502464294433594,248
412,1455642818.93097662925720214844,248
413,1455642818.9808254241943359375,248
414,1455642819.03055810928344726562,256
415,1455642819.08045506477355957031,256
416,1455642819.13007664680480957031,256
417,1455642819.18119835853576660156,256
418,1455642819.23084354400634765625,256
419,1455642819.28067088127136230469,264
420,1455642819.33035969734191894531,264
421,1455642819.38100385665893554688,264
422,1455642819.43087887763977050781,264
423,1455642819.48053741455078125,264
424,1455642819.53047728538513183594,272
425,1455642819.580036163330078125,272
426,1455642819.63094043731689453125,272
427,1455642819.68063950538635253906,272
428,1455642819.73038363456726074219,272
429,1455642819.78098559379577636719,280
430,1455642819.83092069625854492188,280
431,1455642819.88321948051452636719,280
432,1455642819.93042826652526855469,280
433,1455642819.9802684783935546875,280
434,1455642820.03198266029357910156,280
435,1455642820.08094501495361328125,288
436,1455642820.13054823875427246094,288
437,1455642820.18027782440185546875,288
438,1455642820.23093295097351074219,288
439,1455642820.28066468238830566406,288
440,1455642820.33066630363464355469,288
441,1455642820.38050866127014160156,288
442,1455642820.43043780326843261719,296
443,1455642820.48085689544677734375,296
444,1455642820.5307979583740234375,296
445,1455642820.583065032958984375,296
446,1455642820.63078522682189941406,296
447,1455642820.68035221099853515625,296
448,1455642820.73352265357971191406,296
449,1455642820.78140544891357421875,296
450,1455642820.83093285560607910156,296
451,1455642820.88066935539245605469,296
452,1455642820.93023204803466796875,296
453,1455642820.98121762275695800781,296
454,1455642821.03699946403503417969,296
455,1455642821.08071660995483398438,296
456,1455642821.13039731979370117188,296
457,1455642821.18004822731018066406,296
458,1455642821.23089265823364257812,296
459,1455642821.28060364723205566406,296
460,1455642821.33051013946533203125,296
461,1455642821.3800754547119140625,296
462,1455642821.43128561973571777344,296
463,1455642821.48101401329040527344,296
464,1455642821.53110194206237792969,296
465,1455642821.58083844184875488281,296
466,1455642821.63079714775085449219,296
467,1455642821.68096899986267089844,296
468,1455642821.73066830635070800781,296
469,1455642821.78043508529663085938,296
470,1455642821.83111286163330078125,296
471,1455642821.88262581825256347656,296
472,1455642821.93005824089050292969,296
473,1455642821.98109173774719238281,296
474,1455642822.03098559379577636719,296
475,1455642822.080593109130859375,296
476,1455642822.13046550750732421875,288
477,1455642822.1803455352783203125,288
478,1455642822.23021912574768066406,288
479,1455642822.28003835678100585938,288
480,1455642822.33111929893493652344,288
481,1455642822.38079738616943359375,288
482,1455642822.43065905570983886719,288
483,1455642822.48058843612670898438,280
484,1455642822.53021407127380371094,280
485,1455642822.58024334907531738281,280
486,1455642822.63085722923278808594,280
487,1455642822.68122553825378417969,280
488,1455642822.73091936111450195312,280
489,1455642822.78090548515319824219,272
490,1455642822.83109951019287109375,272
491,1455642822.88072848320007324219,272
492,1455642822.93039059638977050781,272
493,1455642822.98110747337341308594,272
494,1455642823.03103041648864746094,264
495,1455642823.08073544502258300781,264
496,1455642823.13058185577392578125,264
497,1455642823.18036746978759765625,264
498,1455642823.23134660720825195312,264
499,1455642823.28093242645263671875,256
500,1455642823.33077406883239746094,256
501,1455642823.38046383857727050781,256
502,1455642823.43004918098449707031,256
503,1455642823.48008203506469726562,256
504,1455642823.53077530860900878906,248
