id, time (s), size (bits)
0,1455642793.4683589935302734375,296
1,1455642793.52931642532348632812,296
2,1455642793.56691312789916992188,296
3,1455642793.61791181564331054688,296
4,1455642793.66751432418823242188,296
5,1455642793.71729493141174316406,296
6,1455642793.76681423187255859375,296
7,1455642793.81815671920776367188,296
8,1455642793.86690545082092285156,296
9,1455642793.92263150215148925781,296
10,1455642793.96751904487609863281,296
11,1455642794.04704380035400390625,296
12,1455642794.06793808937072753906,296
13,1455642794.1185455322265625,296
14,1455642794.16725134849548339844,296
15,1455642794.21679520606994628906,296
16,1455642794.26772618293762207031,296
17,1455642794.31883502006530761719,296
18,1455642794.36735939979553222656,296
19,1455642794.417087554931640625,296
20,1455642794.46778607368469238281,296
21,1455642794.5186252593994140625,296
22,1455642794.56707620620727539062,296
23,1455642794.61857461929321289062,296
24,1455642794.6670627593994140625,296
25,1455642794.71832251548767089844,296
26,1455642794.767024993896484375,296
27,1455642794.81878161430358886719,296
28,1455642794.8675098419189453125,296
29,1455642794.91822314262390136719,296
30,1455642794.96799349784851074219,296
31,1455642795.01926851272583007812,296
32,1455642795.06697583198547363281,296
33,1455642795.11774301528930664062,288
34,1455642795.16726803779602050781,288
35,1455642795.21714282035827636719,288
36,1455642795.26766657829284667969,288
37,1455642795.31754136085510253906,288
38,1455642795.36696696281433105469,288
39,1455642795.41781067848205566406,288
40,1455642795.46724605560302734375,280
41,1455642795.51815009117126464844,280
42,1455642795.56775355339050292969,280
43,1455642795.61734294891357421875,280
44,1455642795.66724848747253417969,280
45,1455642795.71797847747802734375,280
46,1455642795.76780819892883300781,272
47,1455642795.817440032958984375,272
48,1455642795.86727929115295410156,272
49,1455642795.91794681549072265625,272
50,1455642795.96769976615905761719,272
51,1455642796.01727724075317382812,264
52,1455642796.06773996353149414062,264
53,1455642796.11737012863159179688,264
54,1455642796.16685509681701660156,264
55,1455642796.21765470504760742188,264
56,1455642796.26711344718933105469,256
57,1455642796.31789541244506835938,256
58,1455642796.36737680435180664062,256
59,1455642796.41710948944091796875,256
60,1455642796.4677143096923828125,256
61,1455642796.51737856864929199219,248
62,1455642796.56699252128601074219,248
63,1455642796.61766958236694335938,248
64,1455642796.66734147071838378906,248
65,1455642796.71709752082824707031,248
66,1455642796.76777100563049316406,240
67,1455642796.81731963157653808594,240
68,1455642796.86810016632080078125,240
69,1455642796.91757345199584960938,240
70,1455642796.96707320213317871094,240
71,1455642797.01691007614135742188,232
72,1455642797.06740713119506835938,232
73,1455642797.11718297004699707031,232
74,1455642797.16781330108642578125,232
75,1455642797.21762156486511230469,232
76,1455642797.26706790924072265625,224
77,1455642797.32255101203918457031,224
78,1455642797.36712646484375,224
79,1455642797.41757059097290039062,224
80,1455642797.46723532676696777344,224
81,1455642797.51778531074523925781,224
82,1455642797.56751894950866699219,216
83,1455642797.61699151992797851562,216
84,1455642797.66770768165588378906,216
85,1455642797.71711254119873046875,216
86,1455642797.76786541938781738281,216
87,1455642797.81747579574584960938,216
88,1455642797.86687064170837402344,216
89,1455642797.91701626777648925781,208
90,1455642797.96751523017883300781,208
91,1455642798.01857280731201171875,208
92,1455642798.06711030006408691406,208
93,1455642798.1186237335205078125,208
94,1455642798.16748738288879394531,208
95,1455642798.21722555160522460938,208
96,1455642798.26785492897033691406,208
97,1455642798.31765604019165039062,208
98,1455642798.36739230155944824219,208
99,1455642798.4170703887939453125,208
100,1455642798.46796321868896484375,208
101,1455642798.51734328269958496094,208
102,1455642798.56816029548645019531,208
103,1455642798.61761021614074707031,208
104,1455642798.66729450225830078125,208
105,1455642798.71696567535400390625,208
106,1455642798.76743364334106445312,208
107,1455642798.81723618507385253906,208
108,1455642798.86776566505432128906,208
109,1455642798.91752910614013671875,208
110,1455642798.96698546409606933594,208
111,1455642799.01798129081726074219,208
112,1455642799.06758141517639160156,208
113,1455642799.117168426513671875,208
114,1455642799.16763925552368164062,208
115,1455642799.21735262870788574219,208
116,1455642799.26714539527893066406,208
117,1455642799.3175678253173828125,208
118,1455642799.36728239059448242188,208
119,1455642799.41769146919250488281,208
120,1455642799.46730971336364746094,208
121,1455642799.5177154541015625,208
122,1455642799.56740689277648925781,208
123,1455642799.61708045005798339844,216
124,1455642799.66756391525268554688,216
125,1455642799.71730732917785644531,216
126,1455642799.76766633987426757812,216
127,1455642799.81750512123107910156,216
128,1455642799.86684370040893554688,216
129,1455642799.91702628135681152344,216
130,1455642799.96772789955139160156,224
131,1455642800.0173492431640625,224
132,1455642800.06677174568176269531,224
133,1455642800.11726212501525878906,224
134,1455642800.16709256172180175781,224
135,1455642800.21749925613403320312,224
136,1455642800.26713109016418457031,232
137,1455642800.31775403022766113281,232
138,1455642800.36741662025451660156,232
139,1455642800.41690611839294433594,232
140,1455642800.46758317947387695312,232
141,1455642800.51717829704284667969,240
142,1455642800.567577362060546875,240
143,1455642800.61723637580871582031,240
144,1455642800.66762375831604003906,240
145,1455642800.71732187271118164062,240
146,1455642800.76770806312561035156,248
147,1455642800.81738805770874023438,248
148,1455642800.86675977706909179688,248
149,1455642800.91736531257629394531,248
150,1455642800.96674036979675292969,248
151,1455642801.01763415336608886719,256
152,1455642801.06754732131958007812,256
153,1455642801.11699032783508300781,256
154,1455642801.16760611534118652344,256
155,1455642801.21713113784790039062,256
156,1455642801.26714253425598144531,264
157,1455642801.31770992279052734375,264
158,1455642801.36730265617370605469,264
159,1455642801.41718792915344238281,264
160,1455642801.46758604049682617188,264
161,1455642801.51729512214660644531,272
162,1455642801.56765460968017578125,272
163,1455642801.61727690696716308594,272
164,1455642801.66771292686462402344,272
165,1455642801.71790289878845214844,272
166,1455642801.76722192764282226562,280
167,1455642801.8178558349609375,280
168,1455642801.8677005767822265625,280
169,1455642801.91726899147033691406,280
170,1455642801.9669189453125,280
171,1455642802.01747989654541015625,280
172,1455642802.06769156455993652344,288
173,1455642802.11716127395629882812,288
174,1455642802.16771173477172851562,288
175,1455642802.21708917617797851562,288
176,1455642802.26726388931274414062,288
177,1455642802.31680941581726074219,288
178,1455642802.36742067337036132812,288
179,1455642802.417179107666015625,296
180,1455642802.46770548820495605469,296
181,1455642802.51742887496948242188,296
182,1455642802.56697368621826171875,296
183,1455642802.61792159080505371094,296
184,1455642802.66759324073791503906,296
185,1455642802.71739745140075683594,296
186,1455642802.76735234260559082031,296
187,1455642802.81683492660522460938,296
188,1455642802.86758589744567871094,296
189,1455642802.91723990440368652344,296
190,1455642802.96763348579406738281,296
191,1455642803.01714301109313964844,296
192,1455642803.06742215156555175781,296
193,1455642803.11729693412780761719,296
194,1455642803.16704607009887695312,296
195,1455642803.21760106086730957031,296
196,1455642803.2675724029541015625,296
197,1455642803.31786108016967773438,296
198,1455642803.36747503280639648438,296
199,1455642803.41724038124084472656,296
200,1455642803.46716547012329101562,296
201,1455642803.5170497894287109375,296
202,1455642803.56775331497192382812,296
203,1455642803.61756753921508789062,296
204,1455642803.66714596748352050781,296
205,1455642803.71752643585205078125,296
206,1455642803.76776194572448730469,296
207,1455642803.81739115715026855469,296
208,1455642803.86744618415832519531,296
209,1455642803.91758060455322265625,296
210,1455642803.96785783767700195312,296
211,1455642804.01784873008728027344,296
212,1455642804.06799483299255371094,296
213,1455642804.11694121360778808594,288
214,1455642804.16773104667663574219,288
215,1455642804.220500946044921875,288
216,1455642804.26709842681884765625,288
217,1455642804.31756186485290527344,288
218,1455642804.36730694770812988281,288
219,1455642804.42011046409606933594,288
220,1455642804.46767926216125488281,280
221,1455642804.51708912849426269531,280
222,1455642804.56766986846923828125,280
223,1455642804.61739969253540039062,280
224,1455642804.66718816757202148438,280
225,1455642804.71734189987182617188,280
226,1455642804.76700520515441894531,272
227,1455642804.81753802299499511719,272
228,1455642804.8672027587890625,272
229,1455642804.92236542701721191406,272
230,1455642804.96891331672668457031,272
231,1455642805.02269721031188964844,264
232,1455642805.06719803810119628906,264
233,1455642805.11702466011047363281,264
234,1455642805.16750812530517578125,264
235,1455642805.21774363517761230469,264
236,1455642805.26754307746887207031,256
237,1455642805.31838536262512207031,256
238,1455642805.36689543724060058594,256
239,1455642805.41761946678161621094,256
240,1455642805.4671916961669921875,256
241,1455642805.5168170928955078125,248
242,1455642805.567577362060546875,248
243,1455642805.6173000335693359375,248
244,1455642805.66713595390319824219,248
245,1455642805.71766877174377441406,248
246,1455642805.76740360260009765625,240
247,1455642805.81701374053955078125,240
248,1455642805.86771154403686523438,240
249,1455642805.91736841201782226562,240
250,1455642805.96698832511901855469,240
251,1455642806.02048087120056152344,232
252,1455642806.06775259971618652344,232
253,1455642806.11756420135498046875,232
254,1455642806.16730833053588867188,232
255,1455642806.21757745742797851562,232
256,1455642806.26744294166564941406,224
257,1455642806.31738448143005371094,224
258,1455642806.36704230308532714844,224
259,1455642806.41961240768432617188,224
260,1455642806.46774911880493164062,224
261,1455642806.51698207855224609375,224
262,1455642806.56777167320251464844,216
263,1455642806.61767983436584472656,216
264,1455642806.66761684417724609375,216
265,1455642806.71732378005981445312,216
266,1455642806.76734161376953125,216
267,1455642806.81701636314392089844,216
268,1455642806.86762523651123046875,216
269,1455642806.91748833656311035156,208
270,1455642806.96736502647399902344,208
271,1455642807.02081060409545898438,208
272,1455642807.06759810447692871094,208
273,1455642807.11762952804565429688,208
274,1455642807.16753864288330078125,208
275,1455642807.21749615669250488281,208
276,1455642807.26714372634887695312,208
277,1455642807.31677150726318359375,208
278,1455642807.36755704879760742188,208
279,1455642807.41729950904846191406,208
280,1455642807.46733832359313964844,208
281,1455642807.51694941520690917969,208
282,1455642807.56784796714782714844,208
283,1455642807.61770558357238769531,208
284,1455642807.6677398681640625,208
285,1455642807.71732807159423828125,208
286,1455642807.76705908775329589844,208
287,1455642807.816860198974609375,208
288,1455642807.86764740943908691406,208
289,1455642807.91769766807556152344,208
290,1455642807.96758913993835449219,208
291,1455642808.01750111579895019531,208
292,1455642808.06736898422241210938,208
293,1455642808.11749553680419921875,208
294,1455642808.16727709770202636719,208
295,1455642808.21710562705993652344,208
296,1455642808.2672176361083984375,208
297,1455642808.31713914871215820312,208
298,1455642808.36723446846008300781,208
299,1455642808.41686296463012695312,208
300,1455642808.46776676177978515625,208
301,1455642808.51765966415405273438,208
302,1455642808.56785130500793457031,208
303,1455642808.61757016181945800781,216
304,1455642808.66738247871398925781,216
305,1455642808.71730446815490722656,216
306,1455642808.76719498634338378906,216
307,1455642808.81744861602783203125,216
308,1455642808.86727118492126464844,216
309,1455642808.91743016242980957031,216
310,1455642808.96736931800842285156,224
311,1455642809.01713800430297851562,224
312,1455642809.06676983833312988281,224
313,1455642809.11735367774963378906,224
314,1455642809.16737294197082519531,224
315,1455642809.21702742576599121094,224
316,1455642809.26701521873474121094,232
317,1455642809.31773638725280761719,232
318,1455642809.36788249015808105469,232
319,1455642809.41751503944396972656,232
320,1455642809.46726775169372558594,232
321,1455642809.51731586456298828125,240
322,1455642809.56735491752624511719,240
323,1455642809.61733889579772949219,240
324,1455642809.66715335845947265625,240
325,1455642809.71713972091674804688,240
326,1455642809.76682496070861816406,248
327,1455642809.81794881820678710938,248
328,1455642809.86776185035705566406,248
329,1455642809.91769933700561523438,248
330,1455642809.96764039993286132812,248
331,1455642810.01749205589294433594,256
332,1455642810.06748652458190917969,256
333,1455642810.11716938018798828125,256
334,1455642810.16716742515563964844,256
335,1455642810.21700382232666015625,256
336,1455642810.267818450927734375,264
337,1455642810.31754255294799804688,264
338,1455642810.3674869537353515625,264
339,1455642810.41742420196533203125,264
340,1455642810.46737837791442871094,264
341,1455642810.51751565933227539062,272
342,1455642810.56732153892517089844,272
343,1455642810.61749696731567382812,272
344,1455642810.66735243797302246094,272
345,1455642810.71763563156127929688,272
346,1455642810.76735520362854003906,280
347,1455642810.81823849678039550781,280
348,1455642810.86720633506774902344,280
349,1455642810.91700410842895507812,280
350,1455642810.96736621856689453125,280
351,1455642811.02310085296630859375,280
352,1455642811.06749653816223144531,288
353,1455642811.11717295646667480469,288
354,1455642811.16740250587463378906,288
355,1455642811.21714639663696289062,288
356,1455642811.26729464530944824219,288
357,1455642811.3171482086181640625,288
358,1455642811.36776423454284667969,288
359,1455642811.41761922836303710938,296
360,1455642811.46714544296264648438,296
361,1455642811.51685452461242675781,296
362,1455642811.5676021575927734375,296
363,1455642811.61762285232543945312,296
364,1455642811.66727685928344726562,296
365,1455642811.71701574325561523438,296
366,1455642811.76768660545349121094,296
367,1455642811.81743931770324707031,296
368,1455642811.87033772468566894531,296
369,1455642811.917079925537109375,296
370,1455642811.96895885467529296875,296
371,1455642812.01755666732788085938,296
372,1455642812.06745004653930664062,296
373,1455642812.1174449920654296875,296
374,1455642812.16755819320678710938,296
375,1455642812.21737313270568847656,296
376,1455642812.26727747917175292969,296
377,1455642812.31739544868469238281,296
378,1455642812.36720395088195800781,296
379,1455642812.41733050346374511719,296
380,1455642812.46703577041625976562,296
381,1455642812.51784062385559082031,296
382,1455642812.56701183319091796875,296
383,1455642812.61717844009399414062,296
384,1455642812.66690135002136230469,296
385,1455642812.71762108802795410156,296
386,1455642812.76753258705139160156,296
387,1455642812.8174381256103515625,296
388,1455642812.86737036705017089844,296
389,1455642812.91719913482666015625,296
390,1455642812.96712255477905273438,296
391,1455642813.0177326202392578125,296
392,1455642813.06766963005065917969,296
393,1455642813.11713886260986328125,288
394,1455642813.16687297821044921875,288
395,1455642813.21773672103881835938,288
396,1455642813.26741766929626464844,288
397,1455642813.31732654571533203125,288
398,1455642813.36710882186889648438,288
399,1455642813.417201995849609375,288
400,1455642813.46703982353210449219,280
401,1455642813.51792812347412109375,280
402,1455642813.56676411628723144531,280
403,1455642813.61679100990295410156,280
404,1455642813.66683602333068847656,280
405,1455642813.71698927879333496094,280
406,1455642813.76770234107971191406,272
407,1455642813.81707525253295898438,272
408,1455642813.86794710159301757812,272
409,1455642813.91757154464721679688,272
410,1455642813.96748399734497070312,272
411,1455642814.01738095283508300781,264
412,1455642814.06720685958862304688,264
413,1455642814.11723279953002929688,264
414,1455642814.16721105575561523438,264
415,1455642814.21748781204223632812,264
416,1455642814.26734519004821777344,256
417,1455642814.3177490234375,256
418,1455642814.36757636070251464844,256
419,1455642814.41767525672912597656,256
420,1455642814.46739816665649414062,256
421,1455642814.51704263687133789062,248
422,1455642814.56672787666320800781,248
423,1455642814.61735010147094726562,248
424,1455642814.66706800460815429688,248
425,1455642814.71771097183227539062,248
426,1455642814.76750540733337402344,240
427,1455642814.81765198707580566406,240
428,1455642814.86748480796813964844,240
429,1455642814.91682863235473632812,240
430,1455642814.96772336959838867188,240
431,1455642815.02316308021545410156,232
432,1455642815.06680536270141601562,232
433,1455642815.11769962310791015625,232
434,1455642815.16763925552368164062,232
435,1455642815.21774363517761230469,232
436,1455642815.26762127876281738281,224
437,1455642815.31758737564086914062,224
438,1455642815.36753320693969726562,224
439,1455642815.4173145294189453125,224
440,1455642815.46758675575256347656,224
441,1455642815.51747441291809082031,224
442,1455642815.56682348251342773438,216
443,1455642815.61751985549926757812,216
444,1455642815.66783213615417480469,216
445,1455642815.71749019622802734375,216
446,1455642815.76770782470703125,216
447,1455642815.81754732131958007812,216
448,1455642815.86758327484130859375,216
449,1455642815.91754245758056640625,208
450,1455642815.96753406524658203125,208
451,1455642816.01769566535949707031,208
452,1455642816.06761670112609863281,208
453,1455642816.1179904937744140625,208
454,1455642816.16708517074584960938,208
455,1455642816.2172451019287109375,208
456,1455642816.26705980300903320312,208
457,1455642816.31675672531127929688,208
458,1455642816.36751580238342285156,208
459,1455642816.41739606857299804688,208
460,1455642816.46731996536254882812,208
461,1455642816.51704859733581542969,208
462,1455642816.56794404983520507812,208
463,1455642816.61767506599426269531,208
464,1455642816.66749477386474609375,208
465,1455642816.7172527313232421875,208
466,1455642816.76730036735534667969,208
467,1455642816.81724667549133300781,208
468,1455642816.86706423759460449219,208
469,1455642816.91708254814147949219,208
470,1455642816.96681237220764160156,208
471,1455642817.01759195327758789062,208
472,1455642817.06735944747924804688,208
473,1455642817.11731219291687011719,208
474,1455642817.16704130172729492188,208
475,1455642817.21690464019775390625,208
476,1455642817.26767992973327636719,208
477,1455642817.31745052337646484375,208
478,1455642817.36752653121948242188,208
479,1455642817.41743183135986328125,208
480,1455642817.467212677001953125,208
481,1455642817.51713991165161132812,208
482,1455642817.56693148612976074219,208
483,1455642817.61724734306335449219,216
484,1455642817.66711068153381347656,216
485,1455642817.71715807914733886719,216
486,1455642817.7670269012451171875,216
487,1455642817.81697630882263183594,216
488,1455642817.86702299118041992188,216
489,1455642817.918186187744140625,216
490,1455642817.96676564216613769531,224
491,1455642818.01769232749938964844,224
492,1455642818.06767439842224121094,224
493,1455642818.11744236946105957031,224
494,1455642818.16681885719299316406,224
495,1455642818.21780371665954589844,224
496,1455642818.26758813858032226562,232
497,1455642818.31745815277099609375,232
498,1455642818.36758899688720703125,232
499,1455642818.41731214523315429688,232
500,1455642818.46763491630554199219,232
501,1455642818.51738905906677246094,240
502,1455642818.56718754768371582031,240
503,1455642818.61738348007202148438,240
