id, time (s), size (bits)
0,1455642800.85987496376037597656,96
1,1455642800.90930485725402832031,96
2,1455642800.9597873687744140625,96
3,1455642801.00945043563842773438,96
4,1455642801.0591278076171875,96
5,1455642801.10996079444885253906,96
6,1455642801.1594219207763671875,96
7,1455642801.20985007286071777344,96
8,1455642801.25969290733337402344,96
9,1455642801.30912899971008300781,96
10,1455642801.35997295379638671875,96
11,1455642801.40933394432067871094,96
12,1455642801.45993900299072265625,96
13,1455642801.50931406021118164062,96
14,1455642801.55987286567687988281,96
15,1455642801.60951924324035644531,96
16,1455642801.65997385978698730469,96
17,1455642801.70982098579406738281,96
18,1455642801.75911664962768554688,96
19,1455642801.81011700630187988281,96
20,1455642801.85949301719665527344,96
21,1455642801.91027379035949707031,96
22,1455642801.95993328094482421875,96
23,1455642802.01005530357360839844,96
24,1455642802.06006765365600585938,96
25,1455642802.10979223251342773438,96
26,1455642802.15996789932250976562,96
27,1455642802.20992016792297363281,96
28,1455642802.25998544692993164062,96
29,1455642802.31000447273254394531,96
30,1455642802.35996460914611816406,96
31,1455642802.40994405746459960938,96
32,1455642802.4598140716552734375,96
33,1455642802.50987744331359863281,96
34,1455642802.559833526611328125,96
35,1455642802.6097412109375,96
36,1455642802.65957546234130859375,96
37,1455642802.70978450775146484375,96
38,1455642802.75989103317260742188,96
39,1455642802.81021952629089355469,96
40,1455642802.85994648933410644531,96
41,1455642802.91026663780212402344,96
42,1455642802.96005606651306152344,96
43,1455642803.01016640663146972656,96
44,1455642803.05933308601379394531,96
45,1455642803.10955548286437988281,96
46,1455642803.15969991683959960938,96
47,1455642803.20967984199523925781,96
48,1455642803.25978446006774902344,96
49,1455642803.31061816215515136719,96
50,1455642803.35999655723571777344,96
51,1455642803.40962314605712890625,96
52,1455642803.45906877517700195312,96
53,1455642803.50996422767639160156,96
54,1455642803.55938243865966796875,96
55,1455642803.61011815071105957031,96
56,1455642803.65939927101135253906,96
57,1455642803.71742987632751464844,96
58,1455642803.7673587799072265625,96
59,1455642803.81038260459899902344,96
60,1455642803.86020898818969726562,96
61,1455642803.91120743751525878906,96
62,1455642803.95936083793640136719,96
63,1455642804.01029539108276367188,96
64,1455642804.05950498580932617188,96
65,1455642804.10945892333984375,96
66,1455642804.1598873138427734375,96
67,1455642804.2096500396728515625,96
68,1455642804.2599391937255859375,96
69,1455642804.30915403366088867188,96
70,1455642804.35910820960998535156,96
71,1455642804.40962100028991699219,96
72,1455642804.46038150787353515625,96
73,1455642804.51030397415161132812,96
74,1455642804.55982351303100585938,96
75,1455642804.60993885993957519531,96
76,1455642804.65963053703308105469,96
77,1455642804.72257828712463378906,96
78,1455642804.76010489463806152344,96
79,1455642804.8097705841064453125,96
80,1455642804.85996270179748535156,96
81,1455642804.90941929817199707031,96
82,1455642804.95991015434265136719,96
83,1455642805.00975775718688964844,96
84,1455642805.060176849365234375,96
85,1455642805.10968065261840820312,96
86,1455642805.15989136695861816406,96
87,1455642805.21012353897094726562,96
88,1455642805.25991773605346679688,96
89,1455642805.30980992317199707031,96
90,1455642805.36003518104553222656,96
91,1455642805.40972781181335449219,96
92,1455642805.45990657806396484375,96
93,1455642805.5096378326416015625,96
94,1455642805.5602664947509765625,96
95,1455642805.61316132545471191406,96
96,1455642805.65994572639465332031,96
97,1455642805.7097988128662109375,96
98,1455642805.75915765762329101562,96
99,1455642805.8094272613525390625,96
100,1455642805.86045241355895996094,96
101,1455642805.90942311286926269531,96
102,1455642805.96089768409729003906,96
103,1455642806.01697039604187011719,96
104,1455642806.06002712249755859375,96
105,1455642806.10924959182739257812,96
106,1455642806.16040086746215820312,96
107,1455642806.20989632606506347656,96
108,1455642806.25945281982421875,96
109,1455642806.31007075309753417969,96
110,1455642806.35988116264343261719,96
111,1455642806.40958333015441894531,96
112,1455642806.45972681045532226562,96
113,1455642806.51040983200073242188,96
114,1455642806.56011962890625,96
115,1455642806.610118865966796875,96
116,1455642806.65948057174682617188,96
117,1455642806.70982909202575683594,96
118,1455642806.76010370254516601562,96
119,1455642806.81028914451599121094,96
120,1455642806.86049365997314453125,96
121,1455642806.91014814376831054688,96
122,1455642806.96018576622009277344,96
123,1455642807.01006102561950683594,96
124,1455642807.05973768234252929688,96
125,1455642807.10917496681213378906,96
126,1455642807.15990376472473144531,96
127,1455642807.20985889434814453125,96
128,1455642807.26238679885864257812,96
129,1455642807.30964112281799316406,96
130,1455642807.35979437828063964844,96
131,1455642807.40980362892150878906,96
132,1455642807.45982336997985839844,96
133,1455642807.50943660736083984375,96
134,1455642807.56132435798645019531,96
135,1455642807.61013841629028320312,96
136,1455642807.66004204750061035156,96
137,1455642807.70983958244323730469,96
138,1455642807.76006579399108886719,96
139,1455642807.8100643157958984375,96
140,1455642807.86005306243896484375,96
141,1455642807.91011333465576171875,96
142,1455642807.96002507209777832031,96
143,1455642808.01035332679748535156,96
144,1455642808.06011462211608886719,96
145,1455642808.10918855667114257812,96
146,1455642808.15914797782897949219,96
147,1455642808.2093353271484375,96
148,1455642808.26014614105224609375,96
149,1455642808.31020402908325195312,96
150,1455642808.36006093025207519531,96
151,1455642808.41010427474975585938,96
152,1455642808.46012258529663085938,96
153,1455642808.51014924049377441406,96
154,1455642808.55962657928466796875,96
155,1455642808.60992527008056640625,96
156,1455642808.66014194488525390625,96
157,1455642808.71019315719604492188,96
158,1455642808.76010441780090332031,96
159,1455642808.80949878692626953125,96
160,1455642808.85950636863708496094,96
161,1455642808.91005539894104003906,96
162,1455642808.95987415313720703125,96
163,1455642809.00927996635437011719,96
164,1455642809.05976963043212890625,96
165,1455642809.11026239395141601562,96
166,1455642809.15917658805847167969,96
167,1455642809.20972084999084472656,96
168,1455642809.2601757049560546875,96
169,1455642809.31005382537841796875,96
170,1455642809.35947394371032714844,96
171,1455642809.40984630584716796875,96
172,1455642809.46008634567260742188,96
173,1455642809.51032233238220214844,96
174,1455642809.55986380577087402344,96
175,1455642809.60976195335388183594,96
176,1455642809.65928173065185546875,96
177,1455642809.70917391777038574219,96
178,1455642809.76003503799438476562,96
179,1455642809.80934381484985351562,96
180,1455642809.85993909835815429688,96
181,1455642809.91002249717712402344,96
182,1455642809.95971632003784179688,96
183,1455642810.00978803634643554688,96
184,1455642810.06014561653137207031,96
185,1455642810.11010384559631347656,96
186,1455642810.15934729576110839844,96
187,1455642810.21019291877746582031,96
188,1455642810.25978970527648925781,96
189,1455642810.30962634086608886719,96
190,1455642810.35979437828063964844,96
191,1455642810.40984272956848144531,96
192,1455642810.45991373062133789062,96
193,1455642810.50979900360107421875,96
194,1455642810.55978131294250488281,96
195,1455642810.60989260673522949219,96
196,1455642810.65972280502319335938,96
197,1455642810.70982956886291503906,96
198,1455642810.75973367691040039062,96
199,1455642810.80976343154907226562,96
200,1455642810.85971665382385253906,96
201,1455642810.909748077392578125,96
202,1455642810.95938825607299804688,96
203,1455642811.01086139678955078125,96
204,1455642811.06000065803527832031,96
205,1455642811.10965132713317871094,96
206,1455642811.15983128547668457031,96
207,1455642811.20987343788146972656,96
208,1455642811.26009011268615722656,96
209,1455642811.30989384651184082031,96
210,1455642811.36027264595031738281,96
211,1455642811.40992331504821777344,96
212,1455642811.46014308929443359375,96
213,1455642811.51016449928283691406,96
214,1455642811.56003451347351074219,96
215,1455642811.61021709442138671875,96
216,1455642811.66133427619934082031,96
217,1455642811.70939707756042480469,96
218,1455642811.76039075851440429688,96
219,1455642811.80975985527038574219,96
220,1455642811.85922908782958984375,96
221,1455642811.91038584709167480469,96
222,1455642811.95959234237670898438,96
223,1455642812.01015377044677734375,96
224,1455642812.05963373184204101562,96
225,1455642812.109638214111328125,96
226,1455642812.15971469879150390625,96
227,1455642812.20987725257873535156,96
228,1455642812.2600955963134765625,96
229,1455642812.309589385986328125,96
230,1455642812.360015869140625,96
231,1455642812.41013455390930175781,96
232,1455642812.459991455078125,96
233,1455642812.51011705398559570312,96
234,1455642812.56026244163513183594,96
235,1455642812.60950231552124023438,96
236,1455642812.65990757942199707031,96
237,1455642812.70997142791748046875,96
238,1455642812.76035404205322265625,96
239,1455642812.81035900115966796875,96
240,1455642812.86060452461242675781,96
241,1455642812.90993857383728027344,96
242,1455642812.96034145355224609375,96
243,1455642813.01368403434753417969,96
244,1455642813.05986309051513671875,96
245,1455642813.10987496376037597656,96
246,1455642813.16046237945556640625,96
247,1455642813.20920157432556152344,96
248,1455642813.26012372970581054688,96
249,1455642813.30944228172302246094,96
250,1455642813.35963034629821777344,96
251,1455642813.41017580032348632812,96
252,1455642813.46011495590209960938,96
253,1455642813.50953936576843261719,96
254,1455642813.55956339836120605469,96
255,1455642813.61044478416442871094,96
256,1455642813.66008663177490234375,96
257,1455642813.70979714393615722656,96
258,1455642813.75937151908874511719,96
259,1455642813.81206488609313964844,96
260,1455642813.85936117172241210938,96
261,1455642813.90955710411071777344,96
262,1455642813.95975589752197265625,96
263,1455642814.01159977912902832031,96
264,1455642814.05965828895568847656,96
265,1455642814.11004090309143066406,96
266,1455642814.16029953956604003906,96
267,1455642814.20970654487609863281,96
268,1455642814.25962162017822265625,96
269,1455642814.3095245361328125,96
270,1455642814.36007142066955566406,96
271,1455642814.40990424156188964844,96
272,1455642814.46014761924743652344,96
273,1455642814.50989007949829101562,96
274,1455642814.55917215347290039062,96
275,1455642814.60953092575073242188,96
276,1455642814.65946531295776367188,96
277,1455642814.70977950096130371094,96
278,1455642814.75998759269714355469,96
279,1455642814.8101043701171875,96
280,1455642814.85966634750366210938,96
281,1455642814.90969729423522949219,96
282,1455642814.9596710205078125,96
283,1455642815.00923609733581542969,96
284,1455642815.06028318405151367188,96
285,1455642815.11026048660278320312,96
286,1455642815.16011500358581542969,96
287,1455642815.20954418182373046875,96
288,1455642815.25954318046569824219,96
289,1455642815.30968999862670898438,96
290,1455642815.35947871208190917969,96
291,1455642815.40986609458923339844,96
292,1455642815.45987439155578613281,96
293,1455642815.51008772850036621094,96
294,1455642815.55989289283752441406,96
295,1455642815.6097240447998046875,96
296,1455642815.65998673439025878906,96
297,1455642815.70991253852844238281,96
298,1455642815.76012015342712402344,96
299,1455642815.80989670753479003906,96
300,1455642815.86000013351440429688,96
301,1455642815.909908294677734375,96
302,1455642815.95987939834594726562,96
303,1455642816.00987124443054199219,96
304,1455642816.05985927581787109375,96
305,1455642816.10995554924011230469,96
306,1455642816.16004705429077148438,96
307,1455642816.21009564399719238281,96
308,1455642816.26003432273864746094,96
309,1455642816.31016445159912109375,96
310,1455642816.36001706123352050781,96
311,1455642816.41034960746765136719,96
312,1455642816.45908212661743164062,96
313,1455642816.51019144058227539062,96
314,1455642816.55957460403442382812,96
315,1455642816.60996413230895996094,96
316,1455642816.6602458953857421875,96
317,1455642816.71026301383972167969,96
318,1455642816.7604427337646484375,96
319,1455642816.81034564971923828125,96
320,1455642816.85942339897155761719,96
321,1455642816.90932130813598632812,96
322,1455642816.95955991744995117188,96
323,1455642817.00981640815734863281,96
324,1455642817.05999660491943359375,96
325,1455642817.11050629615783691406,96
326,1455642817.15922522544860839844,96
327,1455642817.21051502227783203125,96
328,1455642817.25952959060668945312,96
329,1455642817.30973076820373535156,96
330,1455642817.35976004600524902344,96
331,1455642817.40937066078186035156,96
332,1455642817.45987844467163085938,96
333,1455642817.50980973243713378906,96
334,1455642817.56004071235656738281,96
335,1455642817.60990667343139648438,96
336,1455642817.65951704978942871094,96
337,1455642817.71011376380920410156,96
338,1455642817.76026201248168945312,96
339,1455642817.81026482582092285156,96
340,1455642817.8593425750732421875,96
341,1455642817.90919566154479980469,96
342,1455642817.95973157882690429688,96
343,1455642818.0099964141845703125,96
344,1455642818.05934834480285644531,96
345,1455642818.10970783233642578125,96
346,1455642818.16009593009948730469,96
347,1455642818.20996594429016113281,96
348,1455642818.25934267044067382812,96
349,1455642818.3091278076171875,96
350,1455642818.35958766937255859375,96
351,1455642818.40948009490966796875,96
352,1455642818.45954608917236328125,96
353,1455642818.50955438613891601562,96
354,1455642818.55994939804077148438,96
355,1455642818.609920501708984375,96
356,1455642818.65996885299682617188,96
357,1455642818.70966196060180664062,96
358,1455642818.75974869728088378906,96
359,1455642818.80990743637084960938,96
360,1455642818.85980224609375,96
361,1455642818.90974330902099609375,96
362,1455642818.95959973335266113281,96
363,1455642819.01000285148620605469,96
364,1455642819.06011104583740234375,96
365,1455642819.11021137237548828125,96
366,1455642819.16012120246887207031,96
367,1455642819.20983767509460449219,96
368,1455642819.25989007949829101562,96
369,1455642819.30986690521240234375,96
370,1455642819.35979056358337402344,96
371,1455642819.40942597389221191406,96
372,1455642819.45992159843444824219,96
373,1455642819.50991415977478027344,96
374,1455642819.56007409095764160156,96
375,1455642819.61003613471984863281,96
376,1455642819.65973711013793945312,96
377,1455642819.70974278450012207031,96
378,1455642819.75980806350708007812,96
379,1455642819.80959463119506835938,96
380,1455642819.85954308509826660156,96
381,1455642819.91012454032897949219,96
382,1455642819.95998930931091308594,96
383,1455642820.00997614860534667969,96
384,1455642820.05970835685729980469,96
385,1455642820.11000013351440429688,96
386,1455642820.16035294532775878906,96
387,1455642820.20911836624145507812,96
388,1455642820.2596683502197265625,96
389,1455642820.30966854095458984375,96
390,1455642820.35949468612670898438,96
391,1455642820.40928936004638671875,96
392,1455642820.46229243278503417969,96
393,1455642820.50945305824279785156,96
394,1455642820.55958318710327148438,96
395,1455642820.60973811149597167969,96
396,1455642820.66043639183044433594,96
397,1455642820.70933008193969726562,96
398,1455642820.76018595695495605469,96
399,1455642820.80945730209350585938,96
400,1455642820.85967850685119628906,96
401,1455642820.91345977783203125,96
402,1455642820.96026873588562011719,96
403,1455642821.01777005195617675781,96
404,1455642821.05983686447143554688,96
405,1455642821.1101093292236328125,96
406,1455642821.15915942192077636719,96
407,1455642821.20986199378967285156,96
408,1455642821.26052093505859375,96
409,1455642821.30970358848571777344,96
410,1455642821.35960888862609863281,96
411,1455642821.409648895263671875,96
412,1455642821.45947885513305664062,96
413,1455642821.50944471359252929688,96
414,1455642821.55921077728271484375,96
415,1455642821.60998392105102539062,96
416,1455642821.66313505172729492188,96
417,1455642821.71040201187133789062,96
418,1455642821.76001262664794921875,96
419,1455642821.80976319313049316406,96
420,1455642821.85965394973754882812,96
421,1455642821.90972900390625,96
422,1455642821.96116137504577636719,96
423,1455642822.00995588302612304688,96
424,1455642822.06036043167114257812,96
425,1455642822.10970544815063476562,96
426,1455642822.16030478477478027344,96
427,1455642822.2093105316162109375,96
428,1455642822.25961518287658691406,96
429,1455642822.309848785400390625,96
430,1455642822.35970258712768554688,96
431,1455642822.40923857688903808594,96
432,1455642822.4601497650146484375,96
433,1455642822.50949048995971679688,96
434,1455642822.56013035774230957031,96
435,1455642822.60956430435180664062,96
436,1455642822.65941262245178222656,96
437,1455642822.7094783782958984375,96
438,1455642822.76004695892333984375,96
439,1455642822.81007981300354003906,96
440,1455642822.85929632186889648438,96
441,1455642822.90925240516662597656,96
442,1455642822.96118640899658203125,96
443,1455642823.00981497764587402344,96
444,1455642823.06031751632690429688,96
445,1455642823.11014890670776367188,96
446,1455642823.16023874282836914062,96
447,1455642823.20999002456665039062,96
448,1455642823.25990366935729980469,96
449,1455642823.30993342399597167969,96
450,1455642823.35989046096801757812,96
451,1455642823.4100742340087890625,96
452,1455642823.45987105369567871094,96
453,1455642823.51006269454956054688,96
454,1455642823.55990529060363769531,96
455,1455642823.61038255691528320312,96
456,1455642823.65916490554809570312,96
457,1455642823.70979762077331542969,96
458,1455642823.7601165771484375,96
459,1455642823.81012082099914550781,96
460,1455642823.85909414291381835938,96
461,1455642823.90919923782348632812,96
462,1455642823.95978379249572753906,96
463,1455642824.00964450836181640625,96
464,1455642824.05967760086059570312,96
465,1455642824.109722137451171875,96
466,1455642824.15951228141784667969,96
467,1455642824.20967936515808105469,96
468,1455642824.2594547271728515625,96
469,1455642824.30984258651733398438,96
470,1455642824.35977983474731445312,96
471,1455642824.40997838973999023438,96
472,1455642824.45994901657104492188,96
473,1455642824.50987267494201660156,96
474,1455642824.55987405776977539062,96
475,1455642824.609989166259765625,96
476,1455642824.66009068489074707031,96
477,1455642824.71005463600158691406,96
478,1455642824.76012420654296875,96
479,1455642824.80991816520690917969,96
480,1455642824.86009883880615234375,96
481,1455642824.91005063056945800781,96
482,1455642824.96003627777099609375,96
483,1455642825.01031541824340820312,96
484,1455642825.06006407737731933594,96
485,1455642825.11013078689575195312,96
486,1455642825.16006779670715332031,96
487,1455642825.21027112007141113281,96
488,1455642825.26003408432006835938,96
489,1455642825.31020474433898925781,96
490,1455642825.36009144783020019531,96
491,1455642825.41035890579223632812,96
492,1455642825.46014761924743652344,96
493,1455642825.51006436347961425781,96
494,1455642825.55937528610229492188,96
495,1455642825.60932707786560058594,96
496,1455642825.65982151031494140625,96
497,1455642825.70968532562255859375,96
498,1455642825.75992345809936523438,96
499,1455642825.80984926223754882812,96
500,1455642825.86010217666625976562,96
501,1455642825.9098606109619140625,96
502,1455642825.95982408523559570312,96
503,1455642826.00996232032775878906,96
504,1455642826.05983662605285644531,96
505,1455642826.11002445220947265625,96
506,1455642826.16009593009948730469,96
507,1455642826.21011304855346679688,96
508,1455642826.25992250442504882812,96
509,1455642826.3098621368408203125,96
510,1455642826.3599071502685546875,96
511,1455642826.4098873138427734375,96
512,1455642826.46006512641906738281,96
513,1455642826.50965666770935058594,96
514,1455642826.55983829498291015625,96
515,1455642826.60979461669921875,96
516,1455642826.65976595878601074219,96
517,1455642826.70939970016479492188,96
