id, time (s), size (bits)
0,1455642799.95345807075500488281,96
1,1455642800.00406098365783691406,96
2,1455642800.053874969482421875,96
3,1455642800.10406374931335449219,96
4,1455642800.15391516685485839844,96
5,1455642800.20370697975158691406,96
6,1455642800.25352644920349121094,96
7,1455642800.30429506301879882812,96
8,1455642800.35409951210021972656,96
9,1455642800.40403795242309570312,96
10,1455642800.45407795906066894531,96
11,1455642800.50390410423278808594,96
12,1455642800.55430054664611816406,96
13,1455642800.603954315185546875,96
14,1455642800.654155731201171875,96
15,1455642800.70382618904113769531,96
16,1455642800.75385284423828125,96
17,1455642800.80380582809448242188,96
18,1455642800.85370111465454101562,96
19,1455642800.90348315238952636719,96
20,1455642800.95330262184143066406,96
21,1455642801.00440382957458496094,96
22,1455642801.05834555625915527344,96
23,1455642801.10858583450317382812,96
24,1455642801.15308713912963867188,96
25,1455642801.20347428321838378906,96
26,1455642801.25363326072692871094,96
27,1455642801.30332517623901367188,96
28,1455642801.35327291488647460938,96
29,1455642801.40371036529541015625,96
30,1455642801.45386862754821777344,96
31,1455642801.5035724639892578125,96
32,1455642801.55318236351013183594,96
33,1455642801.60421967506408691406,96
34,1455642801.65367388725280761719,96
35,1455642801.70323610305786132812,96
36,1455642801.75297403335571289062,96
37,1455642801.80340456962585449219,96
38,1455642801.85312438011169433594,96
39,1455642801.90348100662231445312,96
40,1455642801.95368790626525878906,96
41,1455642802.00408649444580078125,96
42,1455642802.05409836769104003906,96
43,1455642802.10369396209716796875,96
44,1455642802.154087066650390625,96
45,1455642802.20318436622619628906,96
46,1455642802.25399327278137207031,96
47,1455642802.30426049232482910156,96
48,1455642802.35330915451049804688,96
49,1455642802.40333318710327148438,96
50,1455642802.45612239837646484375,96
51,1455642802.50404644012451171875,96
52,1455642802.55326342582702636719,96
53,1455642802.60338306427001953125,96
54,1455642802.65404534339904785156,96
55,1455642802.70312428474426269531,96
56,1455642802.75381231307983398438,96
57,1455642802.80744957923889160156,96
58,1455642802.85330653190612792969,96
59,1455642802.90344572067260742188,96
60,1455642802.95333909988403320312,96
61,1455642803.00384306907653808594,96
62,1455642803.05408835411071777344,96
63,1455642803.10369992256164550781,96
64,1455642803.15420055389404296875,96
65,1455642803.20310759544372558594,96
66,1455642803.25430059432983398438,96
67,1455642803.30353307723999023438,96
68,1455642803.35406899452209472656,96
69,1455642803.40418124198913574219,96
70,1455642803.45395517349243164062,96
71,1455642803.50380015373229980469,96
72,1455642803.55366110801696777344,96
73,1455642803.60385942459106445312,96
74,1455642803.65384197235107421875,96
75,1455642803.70555233955383300781,96
76,1455642803.75407671928405761719,96
77,1455642803.80416917800903320312,96
78,1455642803.85395288467407226562,96
79,1455642803.90415668487548828125,96
80,1455642803.95394611358642578125,96
81,1455642804.00388097763061523438,96
82,1455642804.0544281005859375,96
83,1455642804.1040191650390625,96
84,1455642804.15403509140014648438,96
85,1455642804.20373368263244628906,96
86,1455642804.25404763221740722656,96
87,1455642804.30765223503112792969,96
88,1455642804.35394358634948730469,96
89,1455642804.40318703651428222656,96
90,1455642804.45355200767517089844,96
91,1455642804.50485634803771972656,96
92,1455642804.55382800102233886719,96
93,1455642804.605083465576171875,96
94,1455642804.65369415283203125,96
95,1455642804.70458960533142089844,96
96,1455642804.76063632965087890625,96
97,1455642804.80310797691345214844,96
98,1455642804.85365843772888183594,96
99,1455642804.90364217758178710938,96
100,1455642804.95394921302795410156,96
101,1455642805.00398993492126464844,96
102,1455642805.0536518096923828125,96
103,1455642805.10353946685791015625,96
104,1455642805.15406298637390136719,96
105,1455642805.20406818389892578125,96
106,1455642805.25329041481018066406,96
107,1455642805.30567169189453125,96
108,1455642805.3538646697998046875,96
109,1455642805.40402460098266601562,96
110,1455642805.45352482795715332031,96
111,1455642805.50837230682373046875,96
112,1455642805.55324220657348632812,96
113,1455642805.60466408729553222656,96
114,1455642805.65379643440246582031,96
115,1455642805.703216552734375,96
116,1455642805.75330042839050292969,96
117,1455642805.8039188385009765625,96
118,1455642805.85360789299011230469,96
119,1455642805.90499162673950195312,96
120,1455642805.95626544952392578125,96
121,1455642806.00419163703918457031,96
122,1455642806.05330204963684082031,96
123,1455642806.10373091697692871094,96
124,1455642806.15598368644714355469,96
125,1455642806.20384645462036132812,96
126,1455642806.25396323204040527344,96
127,1455642806.30422449111938476562,96
128,1455642806.35329890251159667969,96
129,1455642806.40376734733581542969,96
130,1455642806.45389819145202636719,96
131,1455642806.50388002395629882812,96
132,1455642806.55410289764404296875,96
133,1455642806.60311388969421386719,96
134,1455642806.65312790870666503906,96
135,1455642806.70501708984375,96
136,1455642806.75403618812561035156,96
137,1455642806.80383586883544921875,96
138,1455642806.85377216339111328125,96
139,1455642806.90375208854675292969,96
140,1455642806.95389914512634277344,96
141,1455642807.00383400917053222656,96
142,1455642807.05394148826599121094,96
143,1455642807.10409593582153320312,96
144,1455642807.15383839607238769531,96
145,1455642807.20393276214599609375,96
146,1455642807.2539424896240234375,96
147,1455642807.30424404144287109375,96
148,1455642807.35384535789489746094,96
149,1455642807.40385031700134277344,96
150,1455642807.45371770858764648438,96
151,1455642807.50430321693420410156,96
152,1455642807.5533695220947265625,96
153,1455642807.60335469245910644531,96
154,1455642807.65364813804626464844,96
155,1455642807.7039279937744140625,96
156,1455642807.75382518768310546875,96
157,1455642807.80364894866943359375,96
158,1455642807.85364437103271484375,96
159,1455642807.90390348434448242188,96
160,1455642807.95388746261596679688,96
161,1455642808.00363898277282714844,96
162,1455642808.0530147552490234375,96
163,1455642808.10403037071228027344,96
164,1455642808.15327310562133789062,96
165,1455642808.20405793190002441406,96
166,1455642808.25393056869506835938,96
167,1455642808.30324125289916992188,96
168,1455642808.35354924201965332031,96
169,1455642808.40375614166259765625,96
170,1455642808.45401978492736816406,96
171,1455642808.50643992424011230469,96
172,1455642808.5536937713623046875,96
173,1455642808.60377049446105957031,96
174,1455642808.65429902076721191406,96
175,1455642808.70602250099182128906,96
176,1455642808.75336742401123046875,96
177,1455642808.80332851409912109375,96
178,1455642808.85420298576354980469,96
179,1455642808.90380406379699707031,96
180,1455642808.95336961746215820312,96
181,1455642809.00406908988952636719,96
182,1455642809.05461406707763671875,96
183,1455642809.10363411903381347656,96
184,1455642809.15328764915466308594,96
185,1455642809.20356726646423339844,96
186,1455642809.25347185134887695312,96
187,1455642809.30373716354370117188,96
188,1455642809.35423541069030761719,96
189,1455642809.40403342247009277344,96
190,1455642809.45346498489379882812,96
191,1455642809.50381803512573242188,96
192,1455642809.55370163917541503906,96
193,1455642809.60303783416748046875,96
194,1455642809.65329718589782714844,96
195,1455642809.70370769500732421875,96
196,1455642809.75363564491271972656,96
197,1455642809.80330204963684082031,96
198,1455642809.85376691818237304688,96
199,1455642809.903339385986328125,96
200,1455642809.95330858230590820312,96
201,1455642810.00390720367431640625,96
202,1455642810.05305957794189453125,96
203,1455642810.10345554351806640625,96
204,1455642810.15392947196960449219,96
205,1455642810.20336079597473144531,96
206,1455642810.25343942642211914062,96
207,1455642810.30429577827453613281,96
208,1455642810.35374116897583007812,96
209,1455642810.40384387969970703125,96
210,1455642810.45384359359741210938,96
211,1455642810.5038852691650390625,96
212,1455642810.55407214164733886719,96
213,1455642810.60587835311889648438,96
214,1455642810.65347266197204589844,96
215,1455642810.70396685600280761719,96
216,1455642810.75418376922607421875,96
217,1455642810.80315709114074707031,96
218,1455642810.854290008544921875,96
219,1455642810.90327930450439453125,96
220,1455642810.95703053474426269531,96
221,1455642811.00449800491333007812,96
222,1455642811.05311346054077148438,96
223,1455642811.10340976715087890625,96
224,1455642811.15331792831420898438,96
225,1455642811.20586872100830078125,96
226,1455642811.25606393814086914062,96
227,1455642811.30508971214294433594,96
228,1455642811.35440540313720703125,96
229,1455642811.40383791923522949219,96
230,1455642811.45440649986267089844,96
231,1455642811.503971099853515625,96
232,1455642811.55328464508056640625,96
233,1455642811.60550999641418457031,96
234,1455642811.65362715721130371094,96
235,1455642811.70396757125854492188,96
236,1455642811.75400400161743164062,96
237,1455642811.80373978614807128906,96
238,1455642811.85386919975280761719,96
239,1455642811.90399575233459472656,96
240,1455642811.95350933074951171875,96
241,1455642812.00655508041381835938,96
242,1455642812.05382370948791503906,96
243,1455642812.10335278511047363281,96
244,1455642812.1532535552978515625,96
245,1455642812.203693389892578125,96
246,1455642812.25723481178283691406,96
247,1455642812.30351781845092773438,96
248,1455642812.35520029067993164062,96
249,1455642812.40339183807373046875,96
250,1455642812.45658087730407714844,96
251,1455642812.50477075576782226562,96
252,1455642812.55494141578674316406,96
253,1455642812.60658907890319824219,96
254,1455642812.65313696861267089844,96
255,1455642812.70419073104858398438,96
256,1455642812.75396442413330078125,96
257,1455642812.80401730537414550781,96
258,1455642812.85412120819091796875,96
259,1455642812.903263092041015625,96
260,1455642812.95543074607849121094,96
261,1455642813.00310277938842773438,96
262,1455642813.05831265449523925781,96
263,1455642813.10334300994873046875,96
264,1455642813.15336394309997558594,96
265,1455642813.20327877998352050781,96
266,1455642813.2535228729248046875,96
267,1455642813.303730010986328125,96
268,1455642813.35373783111572265625,96
269,1455642813.40645432472229003906,96
270,1455642813.45695400238037109375,96
271,1455642813.50594568252563476562,96
272,1455642813.55383205413818359375,96
273,1455642813.60742783546447753906,96
274,1455642813.65370583534240722656,96
275,1455642813.70408749580383300781,96
276,1455642813.75550365447998046875,96
277,1455642813.80343270301818847656,96
278,1455642813.85365796089172363281,96
279,1455642813.90425968170166015625,96
280,1455642813.95344662666320800781,96
281,1455642814.00333404541015625,96
282,1455642814.0559940338134765625,96
283,1455642814.10406064987182617188,96
284,1455642814.15426325798034667969,96
285,1455642814.20315480232238769531,96
286,1455642814.25345444679260253906,96
287,1455642814.30338191986083984375,96
288,1455642814.35360884666442871094,96
289,1455642814.40609407424926757812,96
290,1455642814.453479766845703125,96
291,1455642814.506603240966796875,96
292,1455642814.55383038520812988281,96
293,1455642814.60569047927856445312,96
294,1455642814.65341258049011230469,96
295,1455642814.70350766181945800781,96
296,1455642814.75411629676818847656,96
297,1455642814.80545711517333984375,96
298,1455642814.85333466529846191406,96
299,1455642814.90392923355102539062,96
300,1455642814.95774722099304199219,96
301,1455642815.00570154190063476562,96
302,1455642815.05444931983947753906,96
303,1455642815.10354185104370117188,96
304,1455642815.1536655426025390625,96
305,1455642815.20316338539123535156,96
306,1455642815.25413870811462402344,96
307,1455642815.30361819267272949219,96
308,1455642815.353725433349609375,96
309,1455642815.40385985374450683594,96
310,1455642815.45391035079956054688,96
311,1455642815.50338482856750488281,96
312,1455642815.55378127098083496094,96
313,1455642815.60425877571105957031,96
314,1455642815.65424966812133789062,96
315,1455642815.70364499092102050781,96
316,1455642815.75326967239379882812,96
317,1455642815.80324006080627441406,96
318,1455642815.8533916473388671875,96
319,1455642815.90476965904235839844,96
320,1455642815.95382332801818847656,96
321,1455642816.00464177131652832031,96
322,1455642816.05341696739196777344,96
323,1455642816.10388302803039550781,96
324,1455642816.15373158454895019531,96
325,1455642816.20348477363586425781,96
326,1455642816.25409221649169921875,96
327,1455642816.30336022377014160156,96
328,1455642816.35400032997131347656,96
329,1455642816.40335822105407714844,96
330,1455642816.45404791831970214844,96
331,1455642816.50590395927429199219,96
332,1455642816.55404448509216308594,96
333,1455642816.60337948799133300781,96
334,1455642816.65391445159912109375,96
335,1455642816.7038249969482421875,96
336,1455642816.754352569580078125,96
337,1455642816.80375528335571289062,96
338,1455642816.85410261154174804688,96
339,1455642816.90335893630981445312,96
340,1455642816.95395493507385253906,96
341,1455642817.00311970710754394531,96
342,1455642817.05309820175170898438,96
343,1455642817.10312223434448242188,96
344,1455642817.15302205085754394531,96
345,1455642817.20417475700378417969,96
346,1455642817.25303912162780761719,96
347,1455642817.30373930931091308594,96
348,1455642817.35329294204711914062,96
349,1455642817.40400576591491699219,96
350,1455642817.45356202125549316406,96
351,1455642817.50354433059692382812,96
352,1455642817.55390977859497070312,96
353,1455642817.60352659225463867188,96
354,1455642817.65373158454895019531,96
355,1455642817.70374536514282226562,96
356,1455642817.75435471534729003906,96
357,1455642817.80366659164428710938,96
358,1455642817.85389423370361328125,96
359,1455642817.90314769744873046875,96
360,1455642817.95306706428527832031,96
361,1455642818.00405740737915039062,96
362,1455642818.05342721939086914062,96
363,1455642818.104366302490234375,96
364,1455642818.1536197662353515625,96
365,1455642818.20384311676025390625,96
366,1455642818.25384211540222167969,96
367,1455642818.30384707450866699219,96
368,1455642818.35312008857727050781,96
369,1455642818.40382170677185058594,96
370,1455642818.45314073562622070312,96
371,1455642818.50413417816162109375,96
372,1455642818.55411362648010253906,96
373,1455642818.60350704193115234375,96
374,1455642818.6536426544189453125,96
375,1455642818.70391058921813964844,96
376,1455642818.75371003150939941406,96
377,1455642818.80407786369323730469,96
378,1455642818.85327935218811035156,96
379,1455642818.90324544906616210938,96
380,1455642818.95393300056457519531,96
381,1455642819.0036525726318359375,96
382,1455642819.05353784561157226562,96
383,1455642819.1034641265869140625,96
384,1455642819.15354180335998535156,96
385,1455642819.20387196540832519531,96
386,1455642819.2537555694580078125,96
387,1455642819.30387926101684570312,96
388,1455642819.35376214981079101562,96
389,1455642819.40376949310302734375,96
390,1455642819.45358443260192871094,96
391,1455642819.50435042381286621094,96
392,1455642819.55381464958190917969,96
393,1455642819.60302901268005371094,96
394,1455642819.65301632881164550781,96
395,1455642819.70321536064147949219,96
396,1455642819.75404143333435058594,96
397,1455642819.80328655242919921875,96
398,1455642819.85360217094421386719,96
399,1455642819.90391039848327636719,96
400,1455642819.95681428909301757812,96
401,1455642820.00402069091796875,96
402,1455642820.0561809539794921875,96
403,1455642820.10377240180969238281,96
404,1455642820.15386700630187988281,96
405,1455642820.20671129226684570312,96
406,1455642820.25383806228637695312,96
407,1455642820.30354404449462890625,96
408,1455642820.35390973091125488281,96
409,1455642820.40407466888427734375,96
410,1455642820.45405745506286621094,96
411,1455642820.50392079353332519531,96
412,1455642820.55391788482666015625,96
413,1455642820.60313129425048828125,96
414,1455642820.65393757820129394531,96
415,1455642820.70313882827758789062,96
416,1455642820.75429010391235351562,96
417,1455642820.80445742607116699219,96
418,1455642820.855327606201171875,96
419,1455642820.90426993370056152344,96
420,1455642820.95671868324279785156,96
421,1455642821.0035076141357421875,96
422,1455642821.05413675308227539062,96
423,1455642821.103549957275390625,96
424,1455642821.15332436561584472656,96
425,1455642821.20637369155883789062,96
426,1455642821.25723409652709960938,96
427,1455642821.30338239669799804688,96
428,1455642821.35354065895080566406,96
429,1455642821.40372896194458007812,96
430,1455642821.45335125923156738281,96
431,1455642821.50367593765258789062,96
432,1455642821.55348753929138183594,96
433,1455642821.60367131233215332031,96
434,1455642821.65397906303405761719,96
435,1455642821.7041873931884765625,96
436,1455642821.75419950485229492188,96
437,1455642821.80423688888549804688,96
438,1455642821.85350561141967773438,96
439,1455642821.90580105781555175781,96
440,1455642821.95609927177429199219,96
441,1455642822.00364065170288085938,96
442,1455642822.0584163665771484375,96
443,1455642822.10323810577392578125,96
444,1455642822.15365576744079589844,96
445,1455642822.20366311073303222656,96
446,1455642822.2538909912109375,96
447,1455642822.30354642868041992188,96
448,1455642822.35399603843688964844,96
449,1455642822.40386605262756347656,96
450,1455642822.45332789421081542969,96
451,1455642822.50397086143493652344,96
452,1455642822.55498051643371582031,96
453,1455642822.60442042350769042969,96
454,1455642822.65400934219360351562,96
455,1455642822.70415592193603515625,96
456,1455642822.753383636474609375,96
457,1455642822.80323719978332519531,96
458,1455642822.85402178764343261719,96
459,1455642822.90741443634033203125,96
460,1455642822.95381140708923339844,96
461,1455642823.00371861457824707031,96
462,1455642823.05449795722961425781,96
463,1455642823.10367488861083984375,96
464,1455642823.15342068672180175781,96
465,1455642823.20443892478942871094,96
466,1455642823.25382709503173828125,96
467,1455642823.30341839790344238281,96
468,1455642823.35378217697143554688,96
469,1455642823.40429949760437011719,96
470,1455642823.45346856117248535156,96
471,1455642823.50391817092895507812,96
472,1455642823.55380415916442871094,96
473,1455642823.60345864295959472656,96
474,1455642823.6537532806396484375,96
475,1455642823.70302343368530273438,96
476,1455642823.75341820716857910156,96
477,1455642823.80430817604064941406,96
478,1455642823.85331964492797851562,96
479,1455642823.9036426544189453125,96
480,1455642823.95524430274963378906,96
481,1455642824.00366187095642089844,96
482,1455642824.05335354804992675781,96
483,1455642824.10415172576904296875,96
484,1455642824.15331363677978515625,96
485,1455642824.20415854454040527344,96
486,1455642824.25380706787109375,96
487,1455642824.30403208732604980469,96
488,1455642824.35377478599548339844,96
489,1455642824.40454697608947753906,96
490,1455642824.45337605476379394531,96
491,1455642824.50403094291687011719,96
492,1455642824.5539531707763671875,96
493,1455642824.6035823822021484375,96
494,1455642824.65435481071472167969,96
495,1455642824.70388722419738769531,96
496,1455642824.75309967994689941406,96
497,1455642824.80313134193420410156,96
498,1455642824.85330724716186523438,96
499,1455642824.90362977981567382812,96
500,1455642824.95317387580871582031,96
501,1455642825.003528594970703125,96
502,1455642825.05337619781494140625,96
503,1455642825.10368871688842773438,96
504,1455642825.15378308296203613281,96
505,1455642825.20405840873718261719,96
506,1455642825.25421404838562011719,96
507,1455642825.30444741249084472656,96
508,1455642825.35391330718994140625,96
509,1455642825.40392136573791503906,96
510,1455642825.45452570915222167969,96
511,1455642825.5040912628173828125,96
512,1455642825.55389046669006347656,96
513,1455642825.60375261306762695312,96
514,1455642825.65442776679992675781,96
515,1455642825.70385384559631347656,96
516,1455642825.75449347496032714844,96
