id, time (s), size (bits)
0,1455403840.71222162246704101562,608
1,1455403840.76222133636474609375,608
2,1455403840.81266570091247558594,608
3,1455403840.86176037788391113281,608
4,1455403840.9114990234375,608
5,1455403840.96240925788879394531,608
6,1455403841.01286482810974121094,608
7,1455403841.06180214881896972656,608
8,1455403841.11180520057678222656,608
9,1455403841.16185283660888671875,608
10,1455403841.21178531646728515625,608
11,1455403841.26160168647766113281,600
12,1455403841.31169366836547851562,600
13,1455403841.36197066307067871094,600
14,1455403841.41210842132568359375,592
15,1455403841.46222662925720214844,592
16,1455403841.51233911514282226562,584
17,1455403841.56155943870544433594,584
18,1455403841.6117267608642578125,576
19,1455403841.66201615333557128906,576
20,1455403841.71217870712280273438,568
21,1455403841.76214122772216796875,568
22,1455403841.81231713294982910156,560
23,1455403841.86225104331970214844,560
24,1455403841.91143202781677246094,552
25,1455403841.96237683296203613281,544
26,1455403842.01253080368041992188,496
27,1455403842.06172823905944824219,496
28,1455403842.11167740821838378906,504
29,1455403842.16165995597839355469,512
30,1455403842.21183252334594726562,520
31,1455403842.26197862625122070312,520
32,1455403842.31200242042541503906,528
33,1455403842.36234068870544433594,536
34,1455403842.41144514083862304688,536
35,1455403842.46162962913513183594,544
36,1455403842.51175069808959960938,552
37,1455403842.56185960769653320312,552
38,1455403842.61196088790893554688,560
39,1455403842.66215085983276367188,568
40,1455403842.71225595474243164062,568
41,1455403842.7621974945068359375,576
42,1455403842.81213665008544921875,576
43,1455403842.86215233802795410156,584
44,1455403842.91215586662292480469,584
45,1455403842.962169647216796875,592
46,1455403843.01241326332092285156,592
47,1455403843.06178522109985351562,600
48,1455403843.11183381080627441406,600
49,1455403843.16204357147216796875,600
50,1455403843.212200164794921875,608
51,1455403843.26170134544372558594,608
52,1455403843.31190896034240722656,608
53,1455403843.36204409599304199219,608
54,1455403843.41197872161865234375,608
55,1455403843.46210384368896484375,608
56,1455403843.51213669776916503906,608
57,1455403843.56221461296081542969,608
58,1455403843.61231970787048339844,608
59,1455403843.66244935989379882812,608
60,1455403843.71242356300354003906,608
61,1455403843.76249527931213378906,608
62,1455403843.81147170066833496094,608
63,1455403843.86155104637145996094,608
64,1455403843.91152930259704589844,608
65,1455403843.96187162399291992188,600
66,1455403844.01212048530578613281,600
67,1455403844.06222867965698242188,600
68,1455403844.11225748062133789062,592
69,1455403844.16237425804138183594,592
70,1455403844.21233582496643066406,592
71,1455403844.26233577728271484375,584
72,1455403844.3122348785400390625,584
73,1455403844.36257505416870117188,576
74,1455403844.41170930862426757812,576
75,1455403844.46196961402893066406,568
76,1455403844.512176513671875,560
77,1455403844.56229615211486816406,560
78,1455403844.61244797706604003906,552
79,1455403844.6616649627685546875,544
80,1455403844.71209168434143066406,544
81,1455403844.76245784759521484375,536
82,1455403844.81160449981689453125,528
83,1455403844.86179971694946289062,528
84,1455403844.912017822265625,520
85,1455403844.96227478981018066406,512
86,1455403845.01263761520385742188,504
87,1455403845.06192612648010253906,504
88,1455403845.11207485198974609375,496
89,1455403845.16227769851684570312,488
90,1455403845.21153092384338378906,480
91,1455403845.26171994209289550781,480
92,1455403845.31192088127136230469,472
93,1455403845.36222672462463378906,464
94,1455403845.41247463226318359375,456
95,1455403845.46157503128051757812,456
96,1455403845.51185631752014160156,448
97,1455403845.5620403289794921875,440
98,1455403845.61239695549011230469,440
99,1455403845.66162109375,432
100,1455403845.71193170547485351562,424
101,1455403845.76214051246643066406,424
102,1455403845.81222844123840332031,416
103,1455403845.86236643791198730469,416
104,1455403845.91150355339050292969,408
105,1455403845.96174478530883789062,408
106,1455403846.01206302642822265625,400
107,1455403846.06153154373168945312,400
108,1455403846.11176085472106933594,392
109,1455403846.16211700439453125,392
110,1455403846.21223592758178710938,384
111,1455403846.26248216629028320312,384
112,1455403846.31169748306274414062,384
113,1455403846.3619136810302734375,376
114,1455403846.41207790374755859375,376
115,1455403846.46238493919372558594,376
116,1455403846.51148200035095214844,376
117,1455403846.56149935722351074219,376
118,1455403846.6120433807373046875,376
119,1455403846.66235303878784179688,376
120,1455403846.71249842643737792969,376
121,1455403846.76155734062194824219,376
122,1455403846.81175732612609863281,376
123,1455403846.86201906204223632812,376
124,1455403846.91227507591247558594,376
125,1455403846.9624385833740234375,376
126,1455403847.01168751716613769531,376
127,1455403847.06191134452819824219,376
128,1455403847.11208558082580566406,384
129,1455403847.162120819091796875,384
130,1455403847.21235013008117675781,384
131,1455403847.26146292686462402344,392
132,1455403847.31172943115234375,392
133,1455403847.36204051971435546875,400
134,1455403847.41229319572448730469,400
135,1455403847.461811065673828125,408
136,1455403847.51203703880310058594,408
137,1455403847.56223011016845703125,416
138,1455403847.61254000663757324219,416
139,1455403847.66171097755432128906,424
140,1455403847.71200585365295410156,424
141,1455403847.76220250129699707031,432
142,1455403847.81229400634765625,440
143,1455403847.86250972747802734375,440
144,1455403847.91154217720031738281,448
145,1455403847.96159648895263671875,456
146,1455403848.01180362701416015625,456
147,1455403848.0620784759521484375,464
148,1455403848.11224913597106933594,472
149,1455403848.1625537872314453125,480
150,1455403848.21198916435241699219,480
151,1455403848.26247096061706542969,488
152,1455403848.31182599067687988281,496
153,1455403848.36227440834045410156,504
154,1455403848.41254091262817382812,504
155,1455403848.46208333969116210938,512
156,1455403848.51231527328491210938,520
157,1455403848.56257486343383789062,528
158,1455403848.61203765869140625,528
159,1455403848.66249775886535644531,536
160,1455403848.71198892593383789062,544
161,1455403848.76257681846618652344,544
162,1455403848.81196141242980957031,552
163,1455403848.86228728294372558594,560
164,1455403848.91244792938232421875,560
165,1455403848.96267628669738769531,568
166,1455403849.01189494132995605469,568
167,1455403849.06202077865600585938,576
168,1455403849.11211085319519042969,584
169,1455403849.16206407546997070312,584
170,1455403849.21255946159362792969,592
171,1455403849.26144170761108398438,592
172,1455403849.31243586540222167969,592
173,1455403849.36258244514465332031,600
174,1455403849.41325020790100097656,600
175,1455403849.46846652030944824219,600
176,1455403849.51173734664916992188,608
177,1455403849.5619678497314453125,608
178,1455403849.61239147186279296875,608
179,1455403849.66153001785278320312,608
180,1455403849.71183681488037109375,608
181,1455403849.76209878921508789062,608
182,1455403849.81223440170288085938,608
183,1455403849.86260366439819335938,608
184,1455403849.9117889404296875,608
185,1455403849.96203017234802246094,608
186,1455403850.01222658157348632812,608
187,1455403850.06245326995849609375,608
188,1455403850.11152434349060058594,608
189,1455403850.16165804862976074219,608
190,1455403850.21190881729125976562,608
191,1455403850.26209139823913574219,600
192,1455403850.31241488456726074219,600
193,1455403850.36154937744140625,600
194,1455403850.41184782981872558594,592
195,1455403850.46194362640380859375,592
196,1455403850.51213121414184570312,584
197,1455403850.56242609024047851562,584
198,1455403850.61256051063537597656,576
199,1455403850.66177082061767578125,576
200,1455403850.7121715545654296875,568
201,1455403850.76246500015258789062,568
202,1455403850.81174612045288085938,560
203,1455403850.86200189590454101562,560
204,1455403850.91217494010925292969,552
205,1455403850.96244144439697265625,544
206,1455403851.011760711669921875,496
207,1455403851.06210494041442871094,496
208,1455403851.11242794990539550781,504
209,1455403851.16181612014770507812,512
210,1455403851.21199131011962890625,520
211,1455403851.26221513748168945312,520
212,1455403851.31246018409729003906,528
213,1455403851.36157059669494628906,536
214,1455403851.411785125732421875,544
215,1455403851.46205544471740722656,544
216,1455403851.51231312751770019531,552
217,1455403851.56256914138793945312,552
218,1455403851.61174821853637695312,560
219,1455403851.662052154541015625,568
220,1455403851.71229243278503417969,568
221,1455403851.76147389411926269531,576
222,1455403851.81177449226379394531,576
223,1455403851.86201643943786621094,584
224,1455403851.91245627403259277344,584
225,1455403851.96173787117004394531,592
226,1455403852.01210951805114746094,592
227,1455403852.06230640411376953125,600
228,1455403852.11256814002990722656,600
229,1455403852.16177153587341308594,600
230,1455403852.21201992034912109375,608
231,1455403852.26221585273742675781,608
232,1455403852.31246662139892578125,608
233,1455403852.36166262626647949219,608
234,1455403852.41200733184814453125,608
235,1455403852.46224379539489746094,608
236,1455403852.51254820823669433594,608
237,1455403852.56182765960693359375,608
238,1455403852.612186431884765625,608
239,1455403852.66242909431457519531,608
240,1455403852.71165943145751953125,608
241,1455403852.76184391975402832031,608
242,1455403852.8120441436767578125,608
243,1455403852.86232995986938476562,608
244,1455403852.91255903244018554688,608
245,1455403852.96185564994812011719,600
246,1455403853.01213788986206054688,600
247,1455403853.06254529953002929688,600
248,1455403853.11175966262817382812,592
249,1455403853.16202378273010253906,592
250,1455403853.21224951744079589844,592
251,1455403853.26281857490539550781,584
252,1455403853.31228399276733398438,584
253,1455403853.36152052879333496094,576
254,1455403853.41188478469848632812,576
255,1455403853.46223378181457519531,568
256,1455403853.51266431808471679688,560
257,1455403853.56182861328125,560
258,1455403853.61213469505310058594,552
259,1455403853.66247868537902832031,544
260,1455403853.71209812164306640625,544
261,1455403853.76237177848815917969,536
262,1455403853.81248497962951660156,528
263,1455403853.86150789260864257812,528
264,1455403853.9117717742919921875,520
265,1455403853.96194243431091308594,512
266,1455403854.01216197013854980469,504
267,1455403854.06251573562622070312,504
268,1455403854.11159586906433105469,496
269,1455403854.16176843643188476562,488
270,1455403854.21203184127807617188,480
271,1455403854.26222729682922363281,480
272,1455403854.31244587898254394531,472
273,1455403854.36152315139770507812,464
274,1455403854.41166472434997558594,456
275,1455403854.4619388580322265625,456
276,1455403854.51211214065551757812,448
277,1455403854.56246304512023925781,440
278,1455403854.61156249046325683594,440
279,1455403854.66186308860778808594,432
280,1455403854.71215200424194335938,424
281,1455403854.76243305206298828125,424
282,1455403854.81161618232727050781,416
283,1455403854.86179804801940917969,416
284,1455403854.91202259063720703125,408
285,1455403854.96233773231506347656,408
286,1455403855.01154947280883789062,400
287,1455403855.06178736686706542969,400
288,1455403855.11212086677551269531,392
289,1455403855.16206622123718261719,392
290,1455403855.21230459213256835938,384
291,1455403855.26258230209350585938,384
292,1455403855.31182789802551269531,384
293,1455403855.36217260360717773438,376
294,1455403855.41247344017028808594,376
295,1455403855.46173882484436035156,376
296,1455403855.51194214820861816406,376
297,1455403855.56212782859802246094,376
298,1455403855.61229562759399414062,376
299,1455403855.66247963905334472656,376
300,1455403855.71175551414489746094,376
301,1455403855.76197981834411621094,376
302,1455403855.81215500831604003906,376
303,1455403855.86239790916442871094,376
304,1455403855.91157317161560058594,376
305,1455403855.96191835403442382812,376
306,1455403856.01233601570129394531,376
307,1455403856.06165051460266113281,376
308,1455403856.11184716224670410156,384
309,1455403856.16209197044372558594,384
310,1455403856.21230101585388183594,384
311,1455403856.26154780387878417969,392
312,1455403856.311702728271484375,392
313,1455403856.36192679405212402344,400
314,1455403856.41209268569946289062,400
315,1455403856.46229314804077148438,408
316,1455403856.51253294944763183594,408
317,1455403856.56181263923645019531,416
318,1455403856.61204123497009277344,416
319,1455403856.66230535507202148438,424
320,1455403856.71252346038818359375,424
321,1455403856.76176190376281738281,432
322,1455403856.81197357177734375,440
323,1455403856.86220073699951171875,440
324,1455403856.91239714622497558594,448
325,1455403856.96254467964172363281,456
326,1455403857.01185274124145507812,456
327,1455403857.06206464767456054688,464
328,1455403857.11240124702453613281,472
329,1455403857.161540985107421875,480
330,1455403857.21178412437438964844,480
331,1455403857.26198935508728027344,488
332,1455403857.31219053268432617188,496
333,1455403857.36244988441467285156,504
334,1455403857.411663055419921875,504
335,1455403857.46194362640380859375,512
336,1455403857.51234602928161621094,520
337,1455403857.56154680252075195312,528
338,1455403857.61172223091125488281,528
339,1455403857.66201901435852050781,536
340,1455403857.71227550506591796875,544
341,1455403857.76254987716674804688,544
342,1455403857.81178784370422363281,552
343,1455403857.86202526092529296875,560
344,1455403857.91222310066223144531,560
345,1455403857.96240735054016113281,568
346,1455403858.01151323318481445312,568
347,1455403858.06171679496765136719,576
348,1455403858.11208343505859375,584
349,1455403858.16229081153869628906,584
350,1455403858.21154999732971191406,592
351,1455403858.26199769973754882812,592
352,1455403858.31238985061645507812,592
353,1455403858.36258435249328613281,600
354,1455403858.41153788566589355469,600
355,1455403858.46174740791320800781,600
356,1455403858.51199984550476074219,608
357,1455403858.56223726272583007812,608
358,1455403858.612644195556640625,608
359,1455403858.66212630271911621094,608
360,1455403858.7117900848388671875,608
361,1455403858.76238775253295898438,608
362,1455403858.81204199790954589844,608
363,1455403858.86281061172485351562,608
364,1455403858.91209459304809570312,608
365,1455403858.96228313446044921875,608
366,1455403859.01244425773620605469,608
367,1455403859.06253981590270996094,608
368,1455403859.1115436553955078125,608
369,1455403859.16161179542541503906,608
370,1455403859.21196484565734863281,608
371,1455403859.262203216552734375,600
372,1455403859.31244874000549316406,600
373,1455403859.36169219017028808594,600
374,1455403859.41194510459899902344,592
375,1455403859.46230101585388183594,592
376,1455403859.51257610321044921875,584
377,1455403859.56182742118835449219,584
378,1455403859.61212396621704101562,576
379,1455403859.6624584197998046875,576
380,1455403859.71163892745971679688,568
381,1455403859.76182889938354492188,568
382,1455403859.81197214126586914062,560
383,1455403859.86220884323120117188,560
384,1455403859.91241145133972167969,552
385,1455403859.96158933639526367188,544
386,1455403860.01189160346984863281,496
387,1455403860.06219840049743652344,496
388,1455403860.11255097389221191406,504
389,1455403860.16176509857177734375,512
390,1455403860.21200609207153320312,520
391,1455403860.2622127532958984375,520
392,1455403860.31245160102844238281,528
393,1455403860.36254096031188964844,536
394,1455403860.41175031661987304688,544
395,1455403860.46200394630432128906,544
396,1455403860.512302398681640625,552
397,1455403860.56250834465026855469,552
398,1455403860.61170101165771484375,560
399,1455403860.6619110107421875,568
400,1455403860.71215200424194335938,568
401,1455403860.762432098388671875,576
402,1455403860.81169652938842773438,576
403,1455403860.86194276809692382812,584
404,1455403860.91228461265563964844,584
405,1455403860.96155047416687011719,592
406,1455403861.01187682151794433594,592
407,1455403861.06209874153137207031,600
408,1455403861.11240863800048828125,600
409,1455403861.16157269477844238281,600
410,1455403861.21184182167053222656,608
411,1455403861.26211881637573242188,608
412,1455403861.31236624717712402344,608
413,1455403861.36169171333312988281,608
414,1455403861.41192460060119628906,608
415,1455403861.46222376823425292969,608
416,1455403861.51250433921813964844,608
417,1455403861.56177020072937011719,608
418,1455403861.61213707923889160156,608
419,1455403861.66240358352661132812,608
420,1455403861.71162533760070800781,608
421,1455403861.7619380950927734375,608
422,1455403861.81215715408325195312,608
423,1455403861.86240410804748535156,608
424,1455403861.91154074668884277344,608
425,1455403861.96181082725524902344,600
426,1455403862.01210069656372070312,600
427,1455403862.06228542327880859375,600
428,1455403862.11254262924194335938,592
429,1455403862.16176152229309082031,592
430,1455403862.21209049224853515625,592
431,1455403862.26238751411437988281,584
432,1455403862.31158375740051269531,584
433,1455403862.3620452880859375,576
434,1455403862.41227293014526367188,568
435,1455403862.46250939369201660156,568
436,1455403862.51166772842407226562,560
437,1455403862.56192946434020996094,560
438,1455403862.61229062080383300781,552
439,1455403862.66163229942321777344,544
440,1455403862.71190357208251953125,544
441,1455403862.76213002204895019531,536
442,1455403862.81235909461975097656,528
443,1455403862.86257147789001464844,528
444,1455403862.91207027435302734375,520
445,1455403862.96232175827026367188,512
446,1455403863.01161432266235351562,504
447,1455403863.06203508377075195312,504
448,1455403863.11229872703552246094,496
449,1455403863.16248106956481933594,488
450,1455403863.21182322502136230469,480
451,1455403863.26223206520080566406,480
452,1455403863.31159353256225585938,472
453,1455403863.36195015907287597656,464
454,1455403863.41205239295959472656,456
455,1455403863.46236538887023925781,456
456,1455403863.51269769668579101562,448
457,1455403863.56208539009094238281,440
458,1455403863.61232662200927734375,440
459,1455403863.66252279281616210938,432
460,1455403863.711948394775390625,424
461,1455403863.7624073028564453125,424
462,1455403863.81156969070434570312,416
463,1455403863.86172008514404296875,416
464,1455403863.91190052032470703125,408
465,1455403863.96202635765075683594,408
466,1455403864.01220989227294921875,400
467,1455403864.06252145767211914062,400
468,1455403864.11169934272766113281,392
469,1455403864.1619091033935546875,392
470,1455403864.21213269233703613281,384
471,1455403864.26238226890563964844,384
472,1455403864.31165289878845214844,384
473,1455403864.36205220222473144531,376
474,1455403864.41226935386657714844,376
475,1455403864.4624729156494140625,376
476,1455403864.51169466972351074219,376
477,1455403864.56196546554565429688,376
478,1455403864.61223483085632324219,376
479,1455403864.66248154640197753906,376
480,1455403864.71175551414489746094,376
481,1455403864.76202940940856933594,376
482,1455403864.81223964691162109375,376
483,1455403864.862506866455078125,376
484,1455403864.91171526908874511719,376
485,1455403864.96201205253601074219,376
486,1455403865.01248049736022949219,376
487,1455403865.06179904937744140625,376
488,1455403865.11216092109680175781,384
489,1455403865.1624202728271484375,384
490,1455403865.21162748336791992188,384
491,1455403865.26182508468627929688,392
492,1455403865.31203889846801757812,392
493,1455403865.36233448982238769531,400
494,1455403865.41256427764892578125,400
495,1455403865.46186065673828125,408
496,1455403865.5120449066162109375,408
497,1455403865.56226086616516113281,416
498,1455403865.61258268356323242188,416
499,1455403865.66180515289306640625,424
500,1455403865.71209096908569335938,424
501,1455403865.762432098388671875,432
502,1455403865.81159996986389160156,440
503,1455403865.86186003684997558594,440
504,1455403865.91216063499450683594,448
