id, time (s), size (bits)
0,1455911304.40074992179870605469,1455911304.40104770660400390625,4504
1,1455911304.49907636642456054688,1455911304.49934673309326171875,4568
2,1455911304.59042406082153320312,1455911304.59059214591979980469,4632
3,1455911304.68176698684692382812,1455911304.68193197250366210938,4704
4,1455911304.77240514755249023438,1455911304.77263092994689941406,4776
5,1455911304.86393260955810546875,1455911304.86409735679626464844,4856
6,1455911304.95456838607788085938,1455911304.95473265647888183594,4944
7,1455911305.04518365859985351562,1455911305.04534697532653808594,5032
8,1455911305.13753271102905273438,1455911305.13770437240600585938,5128
9,1455911305.22894549369812011719,1455911305.22912478446960449219,5232
10,1455911305.32054662704467773438,1455911305.32071757316589355469,5336
11,1455911305.41190481185913085938,1455911305.41208219528198242188,5440
12,1455911305.50320577621459960938,1455911305.50337290763854980469,5544
13,1455911305.59434413909912109375,1455911305.59455323219299316406,5656
14,1455911305.68462872505187988281,1455911305.68485212326049804688,5768
15,1455911305.77635121345520019531,1455911305.77658295631408691406,5880
16,1455911305.86796283721923828125,1455911305.86812806129455566406,5992
17,1455911305.960124969482421875,1455911305.96028971672058105469,6112
18,1455911306.05152201652526855469,1455911306.05169248580932617188,6224
19,1455911306.143047332763671875,1455911306.14322423934936523438,6344
20,1455911306.23445367813110351562,1455911306.23462033271789550781,6456
21,1455911306.32504773139953613281,1455911306.32521390914916992188,6568
22,1455911306.41673207283020019531,1455911306.41689991950988769531,6672
23,1455911306.50851726531982421875,1455911306.50868701934814453125,6784
24,1455911306.60024023056030273438,1455911306.60041046142578125,6888
25,1455911306.69159960746765136719,1455911306.69176363945007324219,6992
26,1455911306.78381323814392089844,1455911306.78398156166076660156,7088
27,1455911306.87529325485229492188,1455911306.87545704841613769531,7184
28,1455911306.96587967872619628906,1455911306.96609520912170410156,7272
29,1455911307.05781507492065429688,1455911307.05798816680908203125,7352
30,1455911307.14899516105651855469,1455911307.14915776252746582031,7432
31,1455911307.2407817840576171875,1455911307.24094653129577636719,7504
32,1455911307.33331155776977539062,1455911307.333469390869140625,7576
33,1455911307.42509102821350097656,1455911307.42525219917297363281,7640
34,1455911307.51641964912414550781,1455911307.51657629013061523438,7696
35,1455911307.60787701606750488281,1455911307.6080474853515625,7744
36,1455911307.70061159133911132812,1455911307.70077872276306152344,7784
37,1455911307.79196095466613769531,1455911307.79233407974243164062,7824
38,1455911307.88381862640380859375,1455911307.88403224945068359375,7848
39,1455911307.9752597808837890625,1455911307.97543644905090332031,7872
40,1455911308.0673007965087890625,1455911308.06747221946716308594,7888
41,1455911308.1588001251220703125,1455911308.15896248817443847656,7888
42,1455911308.24985623359680175781,1455911308.25002002716064453125,7888
43,1455911308.34223437309265136719,1455911308.34240603446960449219,7880
44,1455911308.43368482589721679688,1455911308.43385100364685058594,7864
45,1455911308.52610254287719726562,1455911308.52626299858093261719,7848
46,1455911308.61785244941711425781,1455911308.61801981925964355469,7816
47,1455911308.709926605224609375,1455911308.71014618873596191406,7776
48,1455911308.80150318145751953125,1455911308.80167078971862792969,7736
49,1455911308.89271306991577148438,1455911308.89289069175720214844,7680
50,1455911308.98502469062805175781,1455911308.98519015312194824219,7624
51,1455911309.0764255523681640625,1455911309.07659196853637695312,7560
52,1455911309.16836667060852050781,1455911309.16852712631225585938,7488
53,1455911309.26005101203918457031,1455911309.26021862030029296875,7416
54,1455911309.35245442390441894531,1455911309.35262084007263183594,7336
55,1455911309.444271087646484375,1455911309.4444370269775390625,7248
56,1455911309.53558802604675292969,1455911309.5357513427734375,7160
57,1455911309.62908267974853515625,1455911309.62925791740417480469,7064
58,1455911309.72092175483703613281,1455911309.72108697891235351562,6960
59,1455911309.81395721435546875,1455911309.81413602828979492188,6856
60,1455911309.9057636260986328125,1455911309.90593457221984863281,6752
61,1455911309.99751710891723632812,1455911309.99783158302307128906,6648
62,1455911310.08887529373168945312,1455911310.08909583091735839844,6536
63,1455911310.18019795417785644531,1455911310.18037462234497070312,6424
64,1455911310.27528452873229980469,1455911310.27545237541198730469,6304
65,1455911310.36715769767761230469,1455911310.36732578277587890625,6192
66,1455911310.45914340019226074219,1455911310.45930743217468261719,6072
67,1455911310.55084443092346191406,1455911310.55101180076599121094,5960
68,1455911310.64314746856689453125,1455911310.64331388473510742188,5840
69,1455911310.73466992378234863281,1455911310.7349987030029296875,5728
70,1455911310.82566738128662109375,1455911310.82583284378051757812,5616
71,1455911310.91832041740417480469,1455911310.918491363525390625,5504
72,1455911311.0099697113037109375,1455911311.01013612747192382812,5400
73,1455911311.10164570808410644531,1455911311.10180974006652832031,5296
74,1455911311.19306039810180664062,1455911311.19322848320007324219,5192
75,1455911311.28472495079040527344,1455911311.28489637374877929688,5096
76,1455911311.37586951255798339844,1455911311.37615704536437988281,5000
77,1455911311.46666693687438964844,1455911311.46682977676391601562,4912
78,1455911311.55850315093994140625,1455911311.55867147445678710938,4832
79,1455911311.64957785606384277344,1455911311.64975953102111816406,4752
80,1455911311.74177145957946777344,1455911311.74193620681762695312,4672
81,1455911311.8329792022705078125,1455911311.83319926261901855469,4608
82,1455911311.92442655563354492188,1455911311.92459535598754882812,4544
83,1455911312.01589155197143554688,1455911312.01605868339538574219,4488
84,1455911312.10628056526184082031,1455911312.10644316673278808594,4440
85,1455911312.19793939590454101562,1455911312.19810891151428222656,4400
86,1455911312.28895521163940429688,1455911312.28912615776062011719,4360
87,1455911312.38072156906127929688,1455911312.38089084625244140625,4336
88,1455911312.47147083282470703125,1455911312.47163558006286621094,4312
89,1455911312.56375432014465332031,1455911312.5639324188232421875,4296
90,1455911312.65511465072631835938,1455911312.65527987480163574219,4296
91,1455911312.7456035614013671875,1455911312.74576663970947265625,4296
92,1455911312.83713984489440917969,1455911312.83732342720031738281,4304
93,1455911312.92800951004028320312,1455911312.9281768798828125,4312
94,1455911313.01931834220886230469,1455911313.01948571205139160156,4336
95,1455911313.1102924346923828125,1455911313.11045670509338378906,4368
96,1455911313.20155405998229980469,1455911313.20172047615051269531,4400
97,1455911313.29259824752807617188,1455911313.29276728630065917969,4448
98,1455911313.38322234153747558594,1455911313.38338565826416015625,4496
99,1455911313.47535395622253417969,1455911313.47553682327270507812,4552
100,1455911313.56655836105346679688,1455911313.56672453880310058594,4616
101,1455911313.65819668769836425781,1455911313.65836620330810546875,4688
102,1455911313.74890542030334472656,1455911313.74907016754150390625,4760
103,1455911313.84035325050354003906,1455911313.84051799774169921875,4840
104,1455911313.93150544166564941406,1455911313.93167757987976074219,4920
105,1455911314.0221614837646484375,1455911314.02232861518859863281,5008
106,1455911314.11389684677124023438,1455911314.11406111717224121094,5104
107,1455911314.20519137382507324219,1455911314.20536279678344726562,5200
108,1455911314.297542572021484375,1455911314.29770612716674804688,5304
109,1455911314.38913440704345703125,1455911314.38931775093078613281,5408
110,1455911314.48062992095947265625,1455911314.48080086708068847656,5520
111,1455911314.57177400588989257812,1455911314.57194232940673828125,5632
112,1455911314.66271424293518066406,1455911314.66287708282470703125,5744
113,1455911314.75459408760070800781,1455911314.75475621223449707031,5856
114,1455911314.84570789337158203125,1455911314.845874786376953125,5968
115,1455911314.93763232231140136719,1455911314.93779993057250976562,6080
116,1455911315.02979254722595214844,1455911315.02996110916137695312,6200
117,1455911315.12203669548034667969,1455911315.12225985527038574219,6312
118,1455911315.213451385498046875,1455911315.21361589431762695312,6432
119,1455911315.30486345291137695312,1455911315.305042266845703125,6544
120,1455911315.39665961265563964844,1455911315.39682507514953613281,6648
121,1455911315.4878826141357421875,1455911315.48805332183837890625,6760
122,1455911315.57940006256103515625,1455911315.57956600189208984375,6864
123,1455911315.67049145698547363281,1455911315.67065763473510742188,6968
124,1455911315.76202416419982910156,1455911315.76219034194946289062,7064
125,1455911315.85349702835083007812,1455911315.8536701202392578125,7160
126,1455911315.94416284561157226562,1455911315.94432854652404785156,7248
127,1455911316.03677415847778320312,1455911316.03695321083068847656,7336
128,1455911316.1317615509033203125,1455911316.13192272186279296875,7416
129,1455911316.22457790374755859375,1455911316.22476172447204589844,7496
130,1455911316.31655025482177734375,1455911316.31671595573425292969,7568
131,1455911316.4084758758544921875,1455911316.4086399078369140625,7624
132,1455911316.50024247169494628906,1455911316.50040841102600097656,7688
133,1455911316.59140872955322265625,1455911316.59157609939575195312,7736
134,1455911316.68310523033142089844,1455911316.68326902389526367188,7776
135,1455911316.77430653572082519531,1455911316.77448391914367675781,7816
136,1455911316.86662244796752929688,1455911316.86678743362426757812,7848
137,1455911316.95824480056762695312,1455911316.95841431617736816406,7864
138,1455911317.05016970634460449219,1455911317.05033111572265625,7880
139,1455911317.14163470268249511719,1455911317.14186835289001464844,7888
140,1455911317.2329235076904296875,1455911317.23308897018432617188,7888
141,1455911317.32489919662475585938,1455911317.32506203651428222656,7888
142,1455911317.41656732559204101562,1455911317.41673684120178222656,7872
143,1455911317.50911211967468261719,1455911317.50926899909973144531,7848
144,1455911317.60061621665954589844,1455911317.60084295272827148438,7824
145,1455911317.69285106658935546875,1455911317.69301486015319824219,7784
146,1455911317.78477787971496582031,1455911317.78494548797607421875,7744
147,1455911317.87595295906066894531,1455911317.87618398666381835938,7696
148,1455911317.96798944473266601562,1455911317.96815061569213867188,7632
149,1455911318.05938053131103515625,1455911318.059558868408203125,7576
150,1455911318.15131711959838867188,1455911318.15152502059936523438,7504
151,1455911318.24316382408142089844,1455911318.24339556694030761719,7432
152,1455911318.33553051948547363281,1455911318.33570075035095214844,7352
153,1455911318.4277477264404296875,1455911318.42791414260864257812,7264
154,1455911318.51945710182189941406,1455911318.51962447166442871094,7176
155,1455911318.6117115020751953125,1455911318.61188602447509765625,7080
156,1455911318.703227996826171875,1455911318.70339274406433105469,6984
157,1455911318.79510021209716796875,1455911318.7952671051025390625,6880
158,1455911318.88676977157592773438,1455911318.88693928718566894531,6776
159,1455911318.97880959510803222656,1455911318.97898983955383300781,6664
160,1455911319.07061338424682617188,1455911319.07077622413635253906,6560
161,1455911319.16191029548645019531,1455911319.16208362579345703125,6448
162,1455911319.2546100616455078125,1455911319.25477838516235351562,6328
163,1455911319.34624600410461425781,1455911319.34641146659851074219,6216
164,1455911319.43832731246948242188,1455911319.43849253654479980469,6096
165,1455911319.53006863594055175781,1455911319.53023815155029296875,5984
166,1455911319.62182784080505371094,1455911319.62216258049011230469,5872
167,1455911319.71347451210021972656,1455911319.71363925933837890625,5752
168,1455911319.80433416366577148438,1455911319.80450177192687988281,5648
169,1455911319.89653944969177246094,1455911319.89673066139221191406,5536
170,1455911319.98750782012939453125,1455911319.98767399787902832031,5424
171,1455911320.07951235771179199219,1455911320.07967710494995117188,5320
172,1455911320.17121839523315429688,1455911320.17138791084289550781,5216
173,1455911320.26302099227905273438,1455911320.26319217681884765625,5120
174,1455911320.35479259490966796875,1455911320.35495781898498535156,5024
175,1455911320.44623088836669921875,1455911320.44658803939819335938,4936
176,1455911320.53800106048583984375,1455911320.53816723823547363281,4848
177,1455911320.62901329994201660156,1455911320.62917852401733398438,4768
178,1455911320.72066807746887207031,1455911320.72083163261413574219,4696
179,1455911320.81224513053894042969,1455911320.8124256134033203125,4624
180,1455911320.90427732467651367188,1455911320.90444517135620117188,4560
181,1455911320.99578928947448730469,1455911320.99595713615417480469,4504
182,1455911321.08664965629577636719,1455911321.08681440353393554688,4448
183,1455911321.17842006683349609375,1455911321.17858529090881347656,4408
184,1455911321.26961684226989746094,1455911321.26977849006652832031,4368
185,1455911321.36111497879028320312,1455911321.36128330230712890625,4344
186,1455911321.45196127891540527344,1455911321.45213484764099121094,4320
187,1455911321.54328250885009765625,1455911321.54344844818115234375,4304
188,1455911321.6345157623291015625,1455911321.63468527793884277344,4296
189,1455911321.72513890266418457031,1455911321.72531437873840332031,4296
190,1455911321.81755852699279785156,1455911321.81772136688232421875,4296
191,1455911321.9087352752685546875,1455911321.90891265869140625,4312
192,1455911322.00053143501281738281,1455911322.00069379806518554688,4336
193,1455911322.09151673316955566406,1455911322.09168696403503417969,4360
194,1455911322.18265247344970703125,1455911322.18283438682556152344,4392
195,1455911322.27412557601928710938,1455911322.27428841590881347656,4440
196,1455911322.36478066444396972656,1455911322.36495327949523925781,4488
197,1455911322.45637178421020507812,1455911322.45653367042541503906,4544
198,1455911322.54724645614624023438,1455911322.54741430282592773438,4600
199,1455911322.63934946060180664062,1455911322.63952970504760742188,4672
200,1455911322.73082470893859863281,1455911322.73099064826965332031,4744
201,1455911322.82246851921081542969,1455911322.82263588905334472656,4824
202,1455911322.91327762603759765625,1455911322.91344118118286132812,4904
203,1455911323.00410747528076171875,1455911323.00427484512329101562,4992
204,1455911323.09564542770385742188,1455911323.09580945968627929688,5088
205,1455911323.18641233444213867188,1455911323.18660831451416015625,5184
206,1455911323.27785658836364746094,1455911323.27801799774169921875,5288
207,1455911323.36916303634643554688,1455911323.36932969093322753906,5392
208,1455911323.46029376983642578125,1455911323.46045684814453125,5496
209,1455911323.55153584480285644531,1455911323.5517292022705078125,5608
210,1455911323.64214801788330078125,1455911323.6423187255859375,5712
211,1455911323.73368191719055175781,1455911323.73384165763854980469,5824
212,1455911323.82460713386535644531,1455911323.82477116584777832031,5944
213,1455911323.91613316535949707031,1455911323.91629648208618164062,6056
214,1455911324.007572174072265625,1455911324.0077381134033203125,6168
215,1455911324.09905886650085449219,1455911324.09922480583190917969,6288
216,1455911324.19017434120178222656,1455911324.19034123420715332031,6400
217,1455911324.28133249282836914062,1455911324.28149914741516113281,6512
218,1455911324.37362337112426757812,1455911324.37378954887390136719,6624
219,1455911324.46471285820007324219,1455911324.4648914337158203125,6728
220,1455911324.55653691291809082031,1455911324.55670499801635742188,6840
221,1455911324.64766407012939453125,1455911324.64782619476318359375,6944
222,1455911324.73908066749572753906,1455911324.73924493789672851562,7040
223,1455911324.83042025566101074219,1455911324.830585479736328125,7136
224,1455911324.92070269584655761719,1455911324.92086529731750488281,7224
225,1455911325.0125885009765625,1455911325.01275515556335449219,7312
226,1455911325.10360693931579589844,1455911325.10377144813537597656,7392
227,1455911325.19584631919860839844,1455911325.19600987434387207031,7472
228,1455911325.28745150566101074219,1455911325.287609100341796875,7544
229,1455911325.37940049171447753906,1455911325.37957859039306640625,7608
230,1455911325.47129917144775390625,1455911325.47146964073181152344,7664
231,1455911325.56256937980651855469,1455911325.56273603439331054688,7720
232,1455911325.65572357177734375,1455911325.65589308738708496094,7768
233,1455911325.747653961181640625,1455911325.74781250953674316406,7808
234,1455911325.84027910232543945312,1455911325.84044194221496582031,7840
235,1455911325.93219923973083496094,1455911325.93236327171325683594,7864
236,1455911326.02408337593078613281,1455911326.02424407005310058594,7880
237,1455911326.11563849449157714844,1455911326.11580252647399902344,7888
238,1455911326.20670032501220703125,1455911326.20709776878356933594,7888
239,1455911326.29944014549255371094,1455911326.29962301254272460938,7888
240,1455911326.39088320732116699219,1455911326.39104557037353515625,7872
241,1455911326.48289537429809570312,1455911326.48305606842041015625,7856
242,1455911326.57465839385986328125,1455911326.57482242584228515625,7832
243,1455911326.666912078857421875,1455911326.667079925537109375,7792
244,1455911326.75859522819519042969,1455911326.75876069068908691406,7752
245,1455911326.8500576019287109375,1455911326.85022306442260742188,7704
246,1455911326.94223380088806152344,1455911326.94239878654479980469,7656
247,1455911327.03377890586853027344,1455911327.03394412994384765625,7592
248,1455911327.12572455406188964844,1455911327.12588906288146972656,7528
249,1455911327.217350006103515625,1455911327.21753287315368652344,7456
250,1455911327.30924725532531738281,1455911327.30941128730773925781,7376
251,1455911327.40143632888793945312,1455911327.40166306495666503906,7288
252,1455911327.49282336235046386719,1455911327.49299454689025878906,7200
253,1455911327.58546590805053710938,1455911327.58562803268432617188,7112
254,1455911327.67734956741333007812,1455911327.677520751953125,7008
255,1455911327.7693424224853515625,1455911327.76951766014099121094,6912
256,1455911327.86873722076416015625,1455911327.86890077590942382812,6800
257,1455911327.96194338798522949219,1455911327.96216440200805664062,6688
258,1455911328.05362701416015625,1455911328.05379343032836914062,6576
259,1455911328.14498639106750488281,1455911328.14516115188598632812,6464
260,1455911328.23718309402465820312,1455911328.23735165596008300781,6352
261,1455911328.32876157760620117188,1455911328.3289279937744140625,6240
262,1455911328.42136597633361816406,1455911328.42153406143188476562,6120
263,1455911328.51350688934326171875,1455911328.513675689697265625,6008
264,1455911328.60543727874755859375,1455911328.60560965538024902344,5888
265,1455911328.69681620597839355469,1455911328.69698119163513183594,5776
266,1455911328.78781580924987792969,1455911328.78798413276672363281,5664
267,1455911328.87973999977111816406,1455911328.87990927696228027344,5552
268,1455911328.97102904319763183594,1455911328.97119879722595214844,5448
269,1455911329.06299924850463867188,1455911329.06318068504333496094,5336
270,1455911329.15448498725891113281,1455911329.15464830398559570312,5232
271,1455911329.24667048454284667969,1455911329.24683737754821777344,5136
272,1455911329.33835887908935546875,1455911329.33852529525756835938,5040
273,1455911329.42921495437622070312,1455911329.429378509521484375,4952
274,1455911329.52098798751831054688,1455911329.52115631103515625,4864
275,1455911329.61214160919189453125,1455911329.61230897903442382812,4784
