id, time (s), size (bits)
0,1455911305.45515656471252441406,1455911305.45551729202270507812,4760
1,1455911305.55417346954345703125,1455911305.55439114570617675781,4680
2,1455911305.64599919319152832031,1455911305.64615964889526367188,4608
3,1455911305.73723602294921875,1455911305.73740601539611816406,4544
4,1455911305.82811021804809570312,1455911305.82827925682067871094,4488
5,1455911305.91933274269104003906,1455911305.91950440406799316406,4440
6,1455911306.01021432876586914062,1455911306.01037669181823730469,4400
7,1455911306.10079669952392578125,1455911306.10096597671508789062,4368
8,1455911306.19286680221557617188,1455911306.19303941726684570312,4336
9,1455911306.28438115119934082031,1455911306.28456950187683105469,4312
10,1455911306.375965118408203125,1455911306.37614202499389648438,4296
11,1455911306.46745967864990234375,1455911306.4676265716552734375,4296
12,1455911306.55865550041198730469,1455911306.55882859230041503906,4296
13,1455911306.649761199951171875,1455911306.6499347686767578125,4304
14,1455911306.74035549163818359375,1455911306.74058628082275390625,4312
15,1455911306.83180952072143554688,1455911306.83198261260986328125,4336
16,1455911306.923488616943359375,1455911306.92365670204162597656,4368
17,1455911307.01536822319030761719,1455911307.01553583145141601562,4400
18,1455911307.10712313652038574219,1455911307.10728788375854492188,4448
19,1455911307.19854378700256347656,1455911307.19887757301330566406,4496
20,1455911307.29003310203552246094,1455911307.2903308868408203125,4552
21,1455911307.38075923919677734375,1455911307.38092303276062011719,4616
22,1455911307.47218489646911621094,1455911307.47234964370727539062,4680
23,1455911307.56399989128112792969,1455911307.56416797637939453125,4760
24,1455911307.65565443038940429688,1455911307.65582060813903808594,4840
25,1455911307.74716043472290039062,1455911307.74733114242553710938,4920
26,1455911307.83918166160583496094,1455911307.83934354782104492188,5016
27,1455911307.93085813522338867188,1455911307.93102526664733886719,5104
28,1455911308.0215358734130859375,1455911308.02170109748840332031,5208
29,1455911308.11324572563171386719,1455911308.11342644691467285156,5304
30,1455911308.20453357696533203125,1455911308.20470380783081054688,5408
31,1455911308.29619264602661132812,1455911308.29635882377624511719,5520
32,1455911308.38872504234313964844,1455911308.38889217376708984375,5632
33,1455911308.4805164337158203125,1455911308.48068189620971679688,5744
34,1455911308.57192325592041015625,1455911308.57209157943725585938,5856
35,1455911308.66335177421569824219,1455911308.66352343559265136719,5968
36,1455911308.75582790374755859375,1455911308.75605988502502441406,6088
37,1455911308.84748578071594238281,1455911308.84765458106994628906,6200
38,1455911308.939342498779296875,1455911308.93951249122619628906,6320
39,1455911309.03086829185485839844,1455911309.03104829788208007812,6432
40,1455911309.12275147438049316406,1455911309.12292146682739257812,6544
41,1455911309.21437335014343261719,1455911309.2145404815673828125,6656
42,1455911309.30536699295043945312,1455911309.30553317070007324219,6760
43,1455911309.39765644073486328125,1455911309.39783072471618652344,6864
44,1455911309.48922801017761230469,1455911309.48939919471740722656,6968
45,1455911309.58141660690307617188,1455911309.58158445358276367188,7072
46,1455911309.67343354225158691406,1455911309.67360138893127441406,7160
47,1455911309.765316009521484375,1455911309.76548671722412109375,7256
48,1455911309.85705447196960449219,1455911309.85722589492797851562,7336
49,1455911309.94824767112731933594,1455911309.9484405517578125,7416
50,1455911310.04047036170959472656,1455911310.04064059257507324219,7496
51,1455911310.13199687004089355469,1455911310.13216662406921386719,7568
52,1455911310.22378993034362792969,1455911310.223957061767578125,7624
53,1455911310.31559205055236816406,1455911310.31576132774353027344,7688
54,1455911310.40783905982971191406,1455911310.40801334381103515625,7736
55,1455911310.49988579750061035156,1455911310.50005865097045898438,7776
56,1455911310.59106707572937011719,1455911310.59123945236206054688,7816
57,1455911310.68415141105651855469,1455911310.68431830406188964844,7848
58,1455911310.77639269828796386719,1455911310.77656435966491699219,7872
59,1455911310.86914825439453125,1455911310.86933660507202148438,7880
60,1455911310.96139407157897949219,1455911310.9615631103515625,7888
61,1455911311.05292344093322753906,1455911311.05316305160522460938,7888
62,1455911311.14457821846008300781,1455911311.14474725723266601562,7888
63,1455911311.2357501983642578125,1455911311.23593258857727050781,7872
64,1455911311.33021140098571777344,1455911311.33045220375061035156,7848
65,1455911311.42271494865417480469,1455911311.42288661003112792969,7816
66,1455911311.51455950736999511719,1455911311.51472759246826171875,7784
67,1455911311.60641241073608398438,1455911311.6065845489501953125,7736
68,1455911311.69855666160583496094,1455911311.69872617721557617188,7688
69,1455911311.79022479057312011719,1455911311.79041337966918945312,7632
70,1455911311.88127589225769042969,1455911311.88144826889038085938,7568
71,1455911311.97363185882568359375,1455911311.97380137443542480469,7496
72,1455911312.06554293632507324219,1455911312.06571269035339355469,7424
73,1455911312.15709638595581054688,1455911312.15726256370544433594,7344
74,1455911312.2487049102783203125,1455911312.24895048141479492188,7256
75,1455911312.34028673171997070312,1455911312.34045052528381347656,7168
76,1455911312.43156147003173828125,1455911312.43172812461853027344,7072
77,1455911312.52228093147277832031,1455911312.52245163917541503906,6976
78,1455911312.61396360397338867188,1455911312.61413407325744628906,6880
79,1455911312.70518827438354492188,1455911312.705425262451171875,6768
80,1455911312.79722571372985839844,1455911312.79738879203796386719,6664
81,1455911312.88864350318908691406,1455911312.88881206512451171875,6552
82,1455911312.97998785972595214844,1455911312.98015546798706054688,6440
83,1455911313.07149171829223632812,1455911313.07166719436645507812,6328
84,1455911313.16203474998474121094,1455911313.162197113037109375,6216
85,1455911313.25349926948547363281,1455911313.25367188453674316406,6104
86,1455911313.34456896781921386719,1455911313.34473538398742675781,5984
87,1455911313.43618464469909667969,1455911313.43635201454162597656,5872
88,1455911313.52725696563720703125,1455911313.52741885185241699219,5760
89,1455911313.61908674240112304688,1455911313.61926817893981933594,5648
90,1455911313.71085190773010253906,1455911313.7110233306884765625,5536
91,1455911313.801280975341796875,1455911313.80161285400390625,5424
92,1455911313.89269351959228515625,1455911313.89292669296264648438,5320
93,1455911313.98366713523864746094,1455911313.98383784294128417969,5224
94,1455911314.07482075691223144531,1455911314.07499361038208007812,5120
95,1455911314.16598749160766601562,1455911314.16614937782287597656,5024
96,1455911314.25713181495666503906,1455911314.25729918479919433594,4936
97,1455911314.34826970100402832031,1455911314.34842848777770996094,4856
98,1455911314.43890023231506347656,1455911314.43906402587890625,4776
99,1455911314.53075146675109863281,1455911314.53094005584716796875,4696
100,1455911314.62213015556335449219,1455911314.62230205535888671875,4624
101,1455911314.71366548538208007812,1455911314.71382951736450195312,4560
102,1455911314.80456233024597167969,1455911314.80472588539123535156,4504
103,1455911314.89588856697082519531,1455911314.8960590362548828125,4456
104,1455911314.98712253570556640625,1455911314.98728919029235839844,4408
105,1455911315.0778408050537109375,1455911315.07800793647766113281,4376
106,1455911315.16934156417846679688,1455911315.16951394081115722656,4344
107,1455911315.26075625419616699219,1455911315.26093292236328125,4320
108,1455911315.35296964645385742188,1455911315.35328221321105957031,4304
109,1455911315.44480371475219726562,1455911315.4449825286865234375,4296
110,1455911315.53612732887268066406,1455911315.53629541397094726562,4296
111,1455911315.62738132476806640625,1455911315.62754726409912109375,4296
112,1455911315.71842622756958007812,1455911315.718585968017578125,4312
113,1455911315.81010460853576660156,1455911315.8102741241455078125,4328
114,1455911315.90128779411315917969,1455911315.90145564079284667969,4360
115,1455911315.99298501014709472656,1455911315.99315047264099121094,4392
116,1455911316.08537364006042480469,1455911316.08554482460021972656,4432
117,1455911316.17744779586791992188,1455911316.17761349678039550781,4480
118,1455911316.26908636093139648438,1455911316.26925611495971679688,4536
119,1455911316.36044073104858398438,1455911316.36062192916870117188,4600
120,1455911316.45211625099182128906,1455911316.45227980613708496094,4664
121,1455911316.54334282875061035156,1455911316.543498992919921875,4744
122,1455911316.63480997085571289062,1455911316.63497781753540039062,4816
123,1455911316.72613883018493652344,1455911316.72630596160888671875,4904
124,1455911316.81753778457641601562,1455911316.81770348548889160156,4992
125,1455911316.90904402732849121094,1455911316.90921163558959960938,5088
126,1455911316.99989032745361328125,1455911317.000049591064453125,5184
127,1455911317.09212040901184082031,1455911317.09229755401611328125,5280
128,1455911317.18684816360473632812,1455911317.18701982498168945312,5392
129,1455911317.27993631362915039062,1455911317.28012704849243164062,5496
130,1455911317.37212848663330078125,1455911317.37230062484741210938,5608
131,1455911317.46399021148681640625,1455911317.46415472030639648438,5720
132,1455911317.5557880401611328125,1455911317.55595946311950683594,5840
133,1455911317.64700603485107421875,1455911317.64716744422912597656,5952
134,1455911317.73861718177795410156,1455911317.73878121376037597656,6064
135,1455911317.82995080947875976562,1455911317.83011794090270996094,6176
136,1455911317.92198276519775390625,1455911317.92220520973205566406,6296
137,1455911318.01377606391906738281,1455911318.01400351524353027344,6408
138,1455911318.10562467575073242188,1455911318.10585236549377441406,6520
139,1455911318.19721674919128417969,1455911318.19739842414855957031,6632
140,1455911318.28850483894348144531,1455911318.28867554664611816406,6744
141,1455911318.38034558296203613281,1455911318.38051700592041015625,6848
142,1455911318.47204756736755371094,1455911318.47221589088439941406,6952
143,1455911318.56441760063171386719,1455911318.56458592414855957031,7048
144,1455911318.65623259544372558594,1455911318.65647625923156738281,7144
145,1455911318.74822092056274414062,1455911318.74844598770141601562,7240
146,1455911318.84015536308288574219,1455911318.84032511711120605469,7328
147,1455911318.93164157867431640625,1455911318.93181538581848144531,7408
148,1455911319.02351427078247070312,1455911319.02368330955505371094,7480
149,1455911319.11503458023071289062,1455911319.11521482467651367188,7552
150,1455911319.20680952072143554688,1455911319.20697784423828125,7616
151,1455911319.2988433837890625,1455911319.29901647567749023438,7672
152,1455911319.39095640182495117188,1455911319.39111828804016113281,7728
153,1455911319.48331499099731445312,1455911319.483486175537109375,7768
154,1455911319.57491850852966308594,1455911319.57508873939514160156,7808
155,1455911319.6671657562255859375,1455911319.66733980178833007812,7840
156,1455911319.75888228416442871094,1455911319.75904893875122070312,7864
157,1455911319.85056471824645996094,1455911319.850734710693359375,7880
158,1455911319.94233918190002441406,1455911319.94251227378845214844,7888
159,1455911320.03428244590759277344,1455911320.03446531295776367188,7888
160,1455911320.12624263763427734375,1455911320.12641143798828125,7888
161,1455911320.21751475334167480469,1455911320.21767950057983398438,7872
162,1455911320.31006598472595214844,1455911320.31038665771484375,7856
163,1455911320.40183711051940917969,1455911320.40200591087341308594,7824
164,1455911320.49384021759033203125,1455911320.49400854110717773438,7792
165,1455911320.58571100234985351562,1455911320.5858860015869140625,7752
166,1455911320.67729973793029785156,1455911320.67746806144714355469,7704
167,1455911320.76912689208984375,1455911320.76930141448974609375,7648
168,1455911320.86004471778869628906,1455911320.86021089553833007812,7584
169,1455911320.95200753211975097656,1455911320.95219492912292480469,7520
170,1455911321.04317402839660644531,1455911321.04341411590576171875,7440
171,1455911321.13494753837585449219,1455911321.13517713546752929688,7368
172,1455911321.22676873207092285156,1455911321.22701048851013183594,7280
173,1455911321.31851315498352050781,1455911321.31873583793640136719,7192
174,1455911321.41040205955505371094,1455911321.41063833236694335938,7096
175,1455911321.50195240974426269531,1455911321.50212860107421875,7000
176,1455911321.59363794326782226562,1455911321.59381127357482910156,6896
177,1455911321.68468213081359863281,1455911321.68485188484191894531,6792
178,1455911321.77620601654052734375,1455911321.77637743949890136719,6688
179,1455911321.86789345741271972656,1455911321.86822152137756347656,6576
180,1455911321.95974230766296386719,1455911321.95999264717102050781,6464
181,1455911322.05146741867065429688,1455911322.05163168907165527344,6352
182,1455911322.14240288734436035156,1455911322.14257216453552246094,6240
183,1455911322.23401522636413574219,1455911322.23433470726013183594,6128
184,1455911322.32525372505187988281,1455911322.32542634010314941406,6008
185,1455911322.41668987274169921875,1455911322.41685461997985839844,5896
186,1455911322.50775742530822753906,1455911322.50792717933654785156,5784
187,1455911322.5989017486572265625,1455911322.59907650947570800781,5672
188,1455911322.69012618064880371094,1455911322.690288543701171875,5560
189,1455911322.78092145919799804688,1455911322.78110456466674804688,5448
190,1455911322.87303423881530761719,1455911322.87320566177368164062,5344
191,1455911322.96448683738708496094,1455911322.96467041969299316406,5240
192,1455911323.05612540245056152344,1455911323.05629277229309082031,5144
193,1455911323.14721441268920898438,1455911323.1473846435546875,5048
194,1455911323.23837351799011230469,1455911323.23875212669372558594,4960
195,1455911323.32988667488098144531,1455911323.33005523681640625,4872
196,1455911323.42049336433410644531,1455911323.42065906524658203125,4792
197,1455911323.51189756393432617188,1455911323.51213026046752929688,4712
198,1455911323.602954864501953125,1455911323.60312747955322265625,4640
199,1455911323.69478273391723632812,1455911323.69496655464172363281,4576
200,1455911323.78636932373046875,1455911323.7865390777587890625,4520
201,1455911323.8780040740966796875,1455911323.87817597389221191406,4464
202,1455911323.96897935867309570312,1455911323.96920800209045410156,4416
203,1455911324.05979895591735839844,1455911324.059967041015625,4384
204,1455911324.15116834640502929688,1455911324.15134000778198242188,4352
205,1455911324.24221301078796386719,1455911324.24238538742065429688,4320
206,1455911324.33347940444946289062,1455911324.33364319801330566406,4304
207,1455911324.42480540275573730469,1455911324.42497968673706054688,4296
208,1455911324.51580190658569335938,1455911324.51615738868713378906,4296
209,1455911324.60726976394653320312,1455911324.60746264457702636719,4296
210,1455911324.69782018661499023438,1455911324.69798231124877929688,4304
211,1455911324.78912019729614257812,1455911324.78928804397583007812,4328
212,1455911324.88032817840576171875,1455911324.88049721717834472656,4352
213,1455911324.97168231010437011719,1455911324.9718456268310546875,4384
214,1455911325.06318616867065429688,1455911325.06334757804870605469,4424
215,1455911325.1545429229736328125,1455911325.15477108955383300781,4472
216,1455911325.2458896636962890625,1455911325.24605655670166015625,4528
217,1455911325.33700132369995117188,1455911325.33716702461242675781,4584
218,1455911325.42908930778503417969,1455911325.42925739288330078125,4648
219,1455911325.52032065391540527344,1455911325.52080464363098144531,4720
220,1455911325.61205005645751953125,1455911325.61221814155578613281,4800
221,1455911325.7033100128173828125,1455911325.70353603363037109375,4880
222,1455911325.79461026191711425781,1455911325.79477334022521972656,4968
223,1455911325.88603615760803222656,1455911325.88620758056640625,5064
224,1455911325.97650170326232910156,1455911325.97667407989501953125,5152
225,1455911326.06803917884826660156,1455911326.06820750236511230469,5256
226,1455911326.15926313400268554688,1455911326.15943479537963867188,5360
227,1455911326.25129556655883789062,1455911326.25146651268005371094,5464
228,1455911326.34310793876647949219,1455911326.34327340126037597656,5576
229,1455911326.43489789962768554688,1455911326.43507647514343261719,5688
230,1455911326.52682137489318847656,1455911326.52699017524719238281,5800
231,1455911326.61806726455688476562,1455911326.61826372146606445312,5912
232,1455911326.71094155311584472656,1455911326.71111273765563964844,6032
233,1455911326.80330920219421386719,1455911326.80347585678100585938,6144
234,1455911326.89564776420593261719,1455911326.89581942558288574219,6264
235,1455911326.98790025711059570312,1455911326.98806905746459960938,6376
236,1455911327.07973885536193847656,1455911327.07990980148315429688,6488
237,1455911327.1712055206298828125,1455911327.17137360572814941406,6600
238,1455911327.26254343986511230469,1455911327.26271104812622070312,6712
239,1455911327.35487222671508789062,1455911327.35505580902099609375,6816
240,1455911327.44649219512939453125,1455911327.44665646553039550781,6920
241,1455911327.53841614723205566406,1455911327.53858089447021484375,7024
242,1455911327.63026905059814453125,1455911327.63043737411499023438,7120
243,1455911327.72239255905151367188,1455911327.72256112098693847656,7216
244,1455911327.81432461738586425781,1455911327.81449294090270996094,7304
245,1455911327.90572619438171386719,1455911327.90589785575866699219,7384
246,1455911327.99773645401000976562,1455911327.99790811538696289062,7464
247,1455911328.08948922157287597656,1455911328.08965921401977539062,7536
248,1455911328.181270599365234375,1455911328.18143463134765625,7600
249,1455911328.27301263809204101562,1455911328.27319979667663574219,7656
250,1455911328.36485910415649414062,1455911328.36502313613891601562,7712
251,1455911328.45711660385131835938,1455911328.4573421478271484375,7760
252,1455911328.54849839210510253906,1455911328.54866743087768554688,7800
253,1455911328.64080715179443359375,1455911328.64104056358337402344,7832
254,1455911328.73306965827941894531,1455911328.73323822021484375,7856
255,1455911328.82482933998107910156,1455911328.82501053810119628906,7880
256,1455911328.92322850227355957031,1455911328.9234027862548828125,7888
257,1455911329.01755762100219726562,1455911329.01772856712341308594,7888
258,1455911329.10941934585571289062,1455911329.10958743095397949219,7888
259,1455911329.20073413848876953125,1455911329.20092034339904785156,7880
260,1455911329.29279088973999023438,1455911329.29296135902404785156,7856
261,1455911329.38454532623291015625,1455911329.38471126556396484375,7832
262,1455911329.47679829597473144531,1455911329.47702145576477050781,7800
263,1455911329.5691318511962890625,1455911329.569301605224609375,7760
264,1455911329.66094493865966796875,1455911329.66111350059509277344,7712
265,1455911329.75257205963134765625,1455911329.75273871421813964844,7656
266,1455911329.84366273880004882812,1455911329.84383177757263183594,7592
267,1455911329.93534874916076660156,1455911329.93551754951477050781,7528
268,1455911330.02676343917846679688,1455911330.02693486213684082031,7456
269,1455911330.11857271194458007812,1455911330.11875963211059570312,7376
270,1455911330.21022582054138183594,1455911330.21039700508117675781,7296
271,1455911330.3020839691162109375,1455911330.30225038528442382812,7208
272,1455911330.39413595199584960938,1455911330.39430594444274902344,7112
273,1455911330.48502516746520996094,1455911330.48519229888916015625,7016
274,1455911330.57660746574401855469,1455911330.57677936553955078125,6920
275,1455911330.66785216331481933594,1455911330.66801977157592773438,6816
