id, time (s), size (bits)
0,1455911303.69418311119079589844,1455911303.69448971748352050781,4296
1,1455911303.79395174980163574219,1455911303.79412722587585449219,4304
2,1455911303.88625454902648925781,1455911303.88642621040344238281,4320
3,1455911303.97729063034057617188,1455911303.97749614715576171875,4344
4,1455911304.06845116615295410156,1455911304.06868290901184082031,4376
5,1455911304.15943145751953125,1455911304.1596012115478515625,4408
6,1455911304.25046277046203613281,1455911304.25062918663024902344,4456
7,1455911304.34101653099060058594,1455911304.3411884307861328125,4504
8,1455911304.43277907371520996094,1455911304.43295717239379882812,4568
9,1455911304.52456927299499511719,1455911304.52475142478942871094,4632
10,1455911304.61607074737548828125,1455911304.61624121665954589844,4696
11,1455911304.70767378807067871094,1455911304.70784544944763183594,4776
12,1455911304.79878973960876464844,1455911304.79895925521850585938,4856
13,1455911304.88999676704406738281,1455911304.89016222953796386719,4944
14,1455911304.98070883750915527344,1455911304.98093438148498535156,5032
15,1455911305.07193017005920410156,1455911305.07209873199462890625,5128
16,1455911305.16370153427124023438,1455911305.16387391090393066406,5224
17,1455911305.25537824630737304688,1455911305.25554418563842773438,5328
18,1455911305.34733080863952636719,1455911305.34750199317932128906,5432
19,1455911305.43860697746276855469,1455911305.43879032135009765625,5544
20,1455911305.53016901016235351562,1455911305.5303363800048828125,5648
21,1455911305.62104439735412597656,1455911305.62121868133544921875,5760
22,1455911305.71221899986267089844,1455911305.71239137649536132812,5872
23,1455911305.80406856536865234375,1455911305.80424070358276367188,5992
24,1455911305.89574098587036132812,1455911305.89591288566589355469,6104
25,1455911305.98737049102783203125,1455911305.98754143714904785156,6224
26,1455911306.07918190956115722656,1455911306.07935047149658203125,6336
27,1455911306.17104744911193847656,1455911306.17122292518615722656,6448
28,1455911306.26178002357482910156,1455911306.26194548606872558594,6560
29,1455911306.353282928466796875,1455911306.3534717559814453125,6672
30,1455911306.44468593597412109375,1455911306.44485616683959960938,6776
31,1455911306.53624272346496582031,1455911306.53657054901123046875,6880
32,1455911306.6288051605224609375,1455911306.62913250923156738281,6984
33,1455911306.72068190574645996094,1455911306.72085666656494140625,7080
34,1455911306.81212329864501953125,1455911306.8122959136962890625,7176
35,1455911306.90341424942016601562,1455911306.90358328819274902344,7264
36,1455911306.9958438873291015625,1455911306.99601650238037109375,7352
37,1455911307.08769392967224121094,1455911307.08786344528198242188,7432
38,1455911307.17937397956848144531,1455911307.17954087257385253906,7504
39,1455911307.27103281021118164062,1455911307.27121615409851074219,7576
40,1455911307.36281991004943847656,1455911307.36298108100891113281,7640
41,1455911307.4545001983642578125,1455911307.4546680450439453125,7696
42,1455911307.5455780029296875,1455911307.54574728012084960938,7744
43,1455911307.63751530647277832031,1455911307.63770842552185058594,7784
44,1455911307.72933626174926757812,1455911307.72950530052185058594,7824
45,1455911307.82132577896118164062,1455911307.82149076461791992188,7848
46,1455911307.91359686851501464844,1455911307.91376352310180664062,7872
47,1455911308.00529742240905761719,1455911308.00546884536743164062,7888
48,1455911308.097202301025390625,1455911308.09737277030944824219,7888
49,1455911308.188388824462890625,1455911308.1885814666748046875,7888
50,1455911308.28029131889343261719,1455911308.28046059608459472656,7880
51,1455911308.3721103668212890625,1455911308.37228226661682128906,7864
52,1455911308.46370482444763183594,1455911308.46386861801147460938,7848
53,1455911308.55562186241149902344,1455911308.55579257011413574219,7816
54,1455911308.647747039794921875,1455911308.64791536331176757812,7776
55,1455911308.74001908302307128906,1455911308.7402553558349609375,7736
56,1455911308.83106327056884765625,1455911308.83123302459716796875,7680
57,1455911308.92383503913879394531,1455911308.924007415771484375,7624
58,1455911309.01641106605529785156,1455911309.01688599586486816406,7560
59,1455911309.10896944999694824219,1455911309.10915327072143554688,7488
60,1455911309.20155096054077148438,1455911309.20171475410461425781,7416
61,1455911309.29298806190490722656,1455911309.29315924644470214844,7336
62,1455911309.38460111618041992188,1455911309.38477253913879394531,7248
63,1455911309.47586035728454589844,1455911309.47604227066040039062,7160
64,1455911309.56974935531616210938,1455911309.56992006301879882812,7064
65,1455911309.66273021697998046875,1455911309.66290640830993652344,6960
66,1455911309.75449061393737792969,1455911309.75465679168701171875,6856
67,1455911309.84648394584655761719,1455911309.84665679931640625,6752
68,1455911309.93837022781372070312,1455911309.93853998184204101562,6648
69,1455911310.03027486801147460938,1455911310.03046488761901855469,6536
70,1455911310.1213245391845703125,1455911310.12154650688171386719,6424
71,1455911310.21346306800842285156,1455911310.21363782882690429688,6304
72,1455911310.30559492111206054688,1455911310.30576419830322265625,6192
73,1455911310.39706850051879882812,1455911310.39723610877990722656,6080
74,1455911310.48882079124450683594,1455911310.4889926910400390625,5960
75,1455911310.58024859428405761719,1455911310.58048176765441894531,5848
76,1455911310.6716976165771484375,1455911310.67186832427978515625,5736
77,1455911310.76230359077453613281,1455911310.76247477531433105469,5624
78,1455911310.85387778282165527344,1455911310.85404706001281738281,5512
79,1455911310.94537067413330078125,1455911310.94555711746215820312,5408
80,1455911311.03697180747985839844,1455911311.03714275360107421875,5304
81,1455911311.12884259223937988281,1455911311.1290149688720703125,5200
82,1455911311.21995282173156738281,1455911311.22013163566589355469,5104
83,1455911311.31153535842895507812,1455911311.31170678138732910156,5008
84,1455911311.40222096443176269531,1455911311.40238928794860839844,4920
85,1455911311.493465423583984375,1455911311.49363827705383300781,4832
86,1455911311.58453869819641113281,1455911311.58470606803894042969,4752
87,1455911311.67615628242492675781,1455911311.67632603645324707031,4680
88,1455911311.76747107505798339844,1455911311.76764249801635742188,4608
89,1455911311.85895705223083496094,1455911311.85914897918701171875,4552
90,1455911311.95101189613342285156,1455911311.95118236541748046875,4496
91,1455911312.04137086868286132812,1455911312.04153513908386230469,4448
92,1455911312.13259387016296386719,1455911312.13277292251586914062,4400
93,1455911312.223773956298828125,1455911312.22394609451293945312,4368
94,1455911312.31479477882385253906,1455911312.31496024131774902344,4336
95,1455911312.40621924400329589844,1455911312.40639472007751464844,4312
96,1455911312.49714374542236328125,1455911312.49731206893920898438,4304
97,1455911312.58843898773193359375,1455911312.58860659599304199219,4296
98,1455911312.67907977104187011719,1455911312.6792545318603515625,4296
99,1455911312.77060556411743164062,1455911312.77079224586486816406,4304
100,1455911312.86217927932739257812,1455911312.86234807968139648438,4312
101,1455911312.95365309715270996094,1455911312.95382285118103027344,4336
102,1455911313.044742584228515625,1455911313.04491519927978515625,4368
103,1455911313.13586640357971191406,1455911313.1360378265380859375,4400
104,1455911313.22722911834716796875,1455911313.22739934921264648438,4440
105,1455911313.31803154945373535156,1455911313.31820535659790039062,4496
106,1455911313.4093475341796875,1455911313.40951681137084960938,4552
107,1455911313.50085091590881347656,1455911313.50102353096008300781,4608
108,1455911313.59272313117980957031,1455911313.59289336204528808594,4680
109,1455911313.6849193572998046875,1455911313.68510866165161132812,4752
110,1455911313.77608036994934082031,1455911313.77624845504760742188,4832
111,1455911313.86752963066101074219,1455911313.86769866943359375,4920
112,1455911313.95843648910522460938,1455911313.95860981941223144531,5008
113,1455911314.0501041412353515625,1455911314.05028033256530761719,5104
114,1455911314.1413974761962890625,1455911314.14157128334045410156,5200
115,1455911314.23292756080627441406,1455911314.23308801651000976562,5304
116,1455911314.32535982131958007812,1455911314.32553124427795410156,5408
117,1455911314.41729116439819335938,1455911314.41746544837951660156,5512
118,1455911314.50917410850524902344,1455911314.5093479156494140625,5624
119,1455911314.60051488876342773438,1455911314.60070109367370605469,5736
120,1455911314.6920757293701171875,1455911314.69224429130554199219,5848
121,1455911314.78336262702941894531,1455911314.78362417221069335938,5968
122,1455911314.87476801872253417969,1455911314.87493896484375,6080
123,1455911314.96624469757080078125,1455911314.96641564369201660156,6192
124,1455911315.05749678611755371094,1455911315.05766773223876953125,6312
125,1455911315.14912247657775878906,1455911315.14929080009460449219,6424
126,1455911315.24004721641540527344,1455911315.24021697044372558594,6536
127,1455911315.33194255828857421875,1455911315.33213186264038085938,6648
128,1455911315.42630815505981445312,1455911315.42647457122802734375,6752
129,1455911315.51976776123046875,1455911315.52002501487731933594,6864
130,1455911315.61218738555908203125,1455911315.61236262321472167969,6968
131,1455911315.70390105247497558594,1455911315.70407891273498535156,7064
132,1455911315.79574561119079589844,1455911315.79591679573059082031,7160
133,1455911315.8871250152587890625,1455911315.88728880882263183594,7248
134,1455911315.97857761383056640625,1455911315.97874140739440917969,7336
135,1455911316.07000660896301269531,1455911316.07017445564270019531,7416
136,1455911316.16185641288757324219,1455911316.16201686859130859375,7496
137,1455911316.25391030311584472656,1455911316.25408053398132324219,7560
138,1455911316.34551882743835449219,1455911316.34568285942077636719,7624
139,1455911316.43722939491271972656,1455911316.43741631507873535156,7680
140,1455911316.52851891517639160156,1455911316.52868700027465820312,7736
141,1455911316.62022161483764648438,1455911316.62039327621459960938,7776
142,1455911316.71210193634033203125,1455911316.71226954460144042969,7816
143,1455911316.80430889129638671875,1455911316.80448198318481445312,7848
144,1455911316.89624834060668945312,1455911316.89641094207763671875,7864
145,1455911316.98806858062744140625,1455911316.98823428153991699219,7880
146,1455911317.08015680313110351562,1455911317.08038234710693359375,7888
147,1455911317.17170166969299316406,1455911317.17187404632568359375,7888
148,1455911317.26346373558044433594,1455911317.26363062858581542969,7888
149,1455911317.35508012771606445312,1455911317.35526490211486816406,7872
150,1455911317.4466533660888671875,1455911317.44682097434997558594,7848
151,1455911317.53881621360778808594,1455911317.53898477554321289062,7824
152,1455911317.63068294525146484375,1455911317.63085007667541503906,7784
153,1455911317.72327423095703125,1455911317.72344565391540527344,7744
154,1455911317.81492686271667480469,1455911317.8150920867919921875,7696
155,1455911317.90700697898864746094,1455911317.90717554092407226562,7640
156,1455911317.99886417388916015625,1455911317.99903345108032226562,7576
157,1455911318.09038376808166503906,1455911318.09069538116455078125,7504
158,1455911318.18230891227722167969,1455911318.1824741363525390625,7432
159,1455911318.27406406402587890625,1455911318.27424478530883789062,7352
160,1455911318.366222381591796875,1455911318.36639261245727539062,7264
161,1455911318.45749163627624511719,1455911318.45765709877014160156,7176
162,1455911318.54973363876342773438,1455911318.54990243911743164062,7080
163,1455911318.64182972908020019531,1455911318.64199876785278320312,6984
164,1455911318.73368430137634277344,1455911318.73385286331176757812,6880
165,1455911318.82555365562438964844,1455911318.82572197914123535156,6776
166,1455911318.91720628738403320312,1455911318.91737580299377441406,6672
167,1455911319.00907301902770996094,1455911319.00924777984619140625,6560
168,1455911319.10003685951232910156,1455911319.10020089149475097656,6448
169,1455911319.1918163299560546875,1455911319.19215130805969238281,6336
170,1455911319.28323030471801757812,1455911319.28339314460754394531,6216
171,1455911319.37474393844604492188,1455911319.3749141693115234375,6104
172,1455911319.46684241294860839844,1455911319.4670124053955078125,5992
173,1455911319.55837345123291015625,1455911319.55854439735412597656,5872
174,1455911319.65034389495849609375,1455911319.65052032470703125,5760
175,1455911319.7419223785400390625,1455911319.74209761619567871094,5648
176,1455911319.83345389366149902344,1455911319.83362889289855957031,5536
177,1455911319.92469310760498046875,1455911319.92486143112182617188,5432
178,1455911320.01611971855163574219,1455911320.01628708839416503906,5328
179,1455911320.10786318778991699219,1455911320.1080455780029296875,5224
180,1455911320.19959306716918945312,1455911320.19975996017456054688,5120
181,1455911320.29146170616149902344,1455911320.29163479804992675781,5024
182,1455911320.38244771957397460938,1455911320.38261389732360839844,4936
183,1455911320.473846435546875,1455911320.47416067123413085938,4848
184,1455911320.56513094902038574219,1455911320.56530356407165527344,4768
185,1455911320.65658926963806152344,1455911320.65675473213195800781,4696
186,1455911320.747821807861328125,1455911320.74799036979675292969,4624
187,1455911320.83872818946838378906,1455911320.83889293670654296875,4560
188,1455911320.93015956878662109375,1455911320.9303340911865234375,4504
189,1455911321.02098560333251953125,1455911321.02117443084716796875,4456
190,1455911321.11268138885498046875,1455911321.11285424232482910156,4408
191,1455911321.2044658660888671875,1455911321.20465111732482910156,4376
192,1455911321.29599833488464355469,1455911321.29631567001342773438,4344
193,1455911321.38731789588928222656,1455911321.38748908042907714844,4320
194,1455911321.47821116447448730469,1455911321.47854208946228027344,4304
195,1455911321.56988430023193359375,1455911321.57020854949951171875,4296
196,1455911321.66052556037902832031,1455911321.66069436073303222656,4296
197,1455911321.75178551673889160156,1455911321.75196075439453125,4296
198,1455911321.84297990798950195312,1455911321.84314846992492675781,4312
199,1455911321.93452191352844238281,1455911321.9347076416015625,4328
200,1455911322.02635622024536132812,1455911322.02652454376220703125,4360
201,1455911322.11789584159851074219,1455911322.118068695068359375,4392
202,1455911322.20910859107971191406,1455911322.209339141845703125,4432
203,1455911322.29978084564208984375,1455911322.29994606971740722656,4480
204,1455911322.39108228683471679688,1455911322.39124798774719238281,4536
205,1455911322.48208951950073242188,1455911322.48225712776184082031,4600
206,1455911322.57338380813598632812,1455911322.57369828224182128906,4664
207,1455911322.66472506523132324219,1455911322.66489648818969726562,4736
208,1455911322.75564980506896972656,1455911322.75581502914428710938,4816
209,1455911322.84723043441772460938,1455911322.84743022918701171875,4896
210,1455911322.93787407875061035156,1455911322.93804335594177246094,4984
211,1455911323.02915239334106445312,1455911323.0293254852294921875,5080
212,1455911323.12036681175231933594,1455911323.12053656578063964844,5176
213,1455911323.21156907081604003906,1455911323.21173381805419921875,5280
214,1455911323.30326104164123535156,1455911323.30342984199523925781,5384
215,1455911323.39445829391479492188,1455911323.39462566375732421875,5488
216,1455911323.48592090606689453125,1455911323.48609018325805664062,5600
217,1455911323.57689380645751953125,1455911323.57721638679504394531,5712
218,1455911323.66887044906616210938,1455911323.66904306411743164062,5824
219,1455911323.76054716110229492188,1455911323.76073479652404785156,5936
220,1455911323.85192847251892089844,1455911323.8520908355712890625,6048
221,1455911323.94341826438903808594,1455911323.94358777999877929688,6168
222,1455911324.03449726104736328125,1455911324.03466725349426269531,6280
223,1455911324.12600588798522949219,1455911324.1261806488037109375,6392
224,1455911324.216556549072265625,1455911324.21672201156616210938,6504
225,1455911324.30790162086486816406,1455911324.30807089805603027344,6616
226,1455911324.39920949935913085938,1455911324.39937472343444824219,6728
227,1455911324.49098467826843261719,1455911324.49115967750549316406,6832
228,1455911324.58312106132507324219,1455911324.58329486846923828125,6936
229,1455911324.67472362518310546875,1455911324.67490911483764648438,7032
230,1455911324.76676201820373535156,1455911324.7669353485107421875,7128
231,1455911324.85797071456909179688,1455911324.85815382003784179688,7224
232,1455911324.95057368278503417969,1455911324.95074462890625,7312
233,1455911325.04314327239990234375,1455911325.04336714744567871094,7392
234,1455911325.13533473014831542969,1455911325.13549590110778808594,7472
235,1455911325.2278461456298828125,1455911325.22801756858825683594,7544
236,1455911325.31964564323425292969,1455911325.31981492042541503906,7608
237,1455911325.41114044189453125,1455911325.41130876541137695312,7664
238,1455911325.50245022773742675781,1455911325.50261378288269042969,7720
239,1455911325.59460806846618652344,1455911325.59479045867919921875,7768
240,1455911325.6864261627197265625,1455911325.68659806251525878906,7808
241,1455911325.77813386917114257812,1455911325.77830290794372558594,7840
242,1455911325.87014126777648925781,1455911325.87031006813049316406,7864
243,1455911325.96215152740478515625,1455911325.96231961250305175781,7880
244,1455911326.05426168441772460938,1455911326.0544281005859375,7888
245,1455911326.14561557769775390625,1455911326.14579510688781738281,7888
246,1455911326.23786306381225585938,1455911326.23803400993347167969,7888
247,1455911326.32942795753479003906,1455911326.32959628105163574219,7872
248,1455911326.42103934288024902344,1455911326.42120456695556640625,7856
249,1455911326.51289343833923339844,1455911326.51308012008666992188,7832
250,1455911326.604694366455078125,1455911326.60486054420471191406,7792
251,1455911326.69700312614440917969,1455911326.697170257568359375,7752
252,1455911326.78840875625610351562,1455911326.78858423233032226562,7704
253,1455911326.88050174713134765625,1455911326.88067555427551269531,7656
254,1455911326.97299098968505859375,1455911326.97315359115600585938,7592
255,1455911327.0645751953125,1455911327.06481885910034179688,7528
256,1455911327.16192793846130371094,1455911327.16209554672241210938,7448
257,1455911327.25736141204833984375,1455911327.25753760337829589844,7368
258,1455911327.34927415847778320312,1455911327.3494434356689453125,7280
259,1455911327.44058775901794433594,1455911327.44077277183532714844,7192
260,1455911327.5325603485107421875,1455911327.53273034095764160156,7104
261,1455911327.62444901466369628906,1455911327.6246242523193359375,7000
262,1455911327.7164669036865234375,1455911327.71663641929626464844,6904
263,1455911327.80895709991455078125,1455911327.80912423133850097656,6792
264,1455911327.90078854560852050781,1455911327.90095591545104980469,6688
265,1455911327.99240183830261230469,1455911327.992641448974609375,6576
266,1455911328.08350443840026855469,1455911328.08368015289306640625,6464
267,1455911328.17509531974792480469,1455911328.17526960372924804688,6352
268,1455911328.266632080078125,1455911328.26680803298950195312,6240
269,1455911328.3582782745361328125,1455911328.35846257209777832031,6128
270,1455911328.45007467269897460938,1455911328.45024824142456054688,6008
271,1455911328.54175519943237304688,1455911328.54192757606506347656,5896
272,1455911328.63404107093811035156,1455911328.63421773910522460938,5776
273,1455911328.72497916221618652344,1455911328.7251453399658203125,5672
274,1455911328.81624722480773925781,1455911328.81641626358032226562,5560
275,1455911328.90778446197509765625,1455911328.9079532623291015625,5448
276,1455911328.99906134605407714844,1455911328.999237060546875,5344
