id, time (s), size (bits)
0,1455911304.65672039985656738281,1455911304.65701937675476074219,4304
1,1455911304.75797510147094726562,1455911304.75815343856811523438,4328
2,1455911304.85111546516418457031,1455911304.85128664970397949219,4352
3,1455911304.9419574737548828125,1455911304.9421215057373046875,4384
4,1455911305.03346371650695800781,1455911305.03363537788391113281,4424
5,1455911305.12407064437866210938,1455911305.12423419952392578125,4472
6,1455911305.21553134918212890625,1455911305.21569943428039550781,4528
7,1455911305.30598378181457519531,1455911305.30614924430847167969,4584
8,1455911305.39717507362365722656,1455911305.3973407745361328125,4648
9,1455911305.48944735527038574219,1455911305.48963379859924316406,4728
10,1455911305.58056616783142089844,1455911305.58077383041381835938,4800
11,1455911305.67252421379089355469,1455911305.67269563674926757812,4888
12,1455911305.76364231109619140625,1455911305.76381063461303710938,4968
13,1455911305.85485506057739257812,1455911305.85502600669860839844,5064
14,1455911305.94579553604125976562,1455911305.94596648216247558594,5160
15,1455911306.03642821311950683594,1455911306.03660154342651367188,5256
16,1455911306.12842917442321777344,1455911306.12859821319580078125,5360
17,1455911306.21976065635681152344,1455911306.21992635726928710938,5472
18,1455911306.31224536895751953125,1455911306.31241655349731445312,5576
19,1455911306.40316343307495117188,1455911306.40340781211853027344,5688
20,1455911306.49492192268371582031,1455911306.49530124664306640625,5800
21,1455911306.58601236343383789062,1455911306.58618211746215820312,5920
22,1455911306.67677474021911621094,1455911306.67694425582885742188,6032
23,1455911306.76878523826599121094,1455911306.76895594596862792969,6144
24,1455911306.86032533645629882812,1455911306.86049175262451171875,6264
25,1455911306.9522190093994140625,1455911306.95238184928894042969,6376
26,1455911307.04369139671325683594,1455911307.04390883445739746094,6488
27,1455911307.13580226898193359375,1455911307.13596653938293457031,6600
28,1455911307.22679972648620605469,1455911307.2269649505615234375,6712
29,1455911307.31784176826477050781,1455911307.31802439689636230469,6816
30,1455911307.40953755378723144531,1455911307.4097042083740234375,6920
31,1455911307.50070786476135253906,1455911307.50093293190002441406,7016
32,1455911307.59331655502319335938,1455911307.59348583221435546875,7120
33,1455911307.68524932861328125,1455911307.68542146682739257812,7208
34,1455911307.77693057060241699219,1455911307.77710127830505371094,7296
35,1455911307.86817169189453125,1455911307.86833500862121582031,7384
36,1455911307.9601955413818359375,1455911307.96036648750305175781,7456
37,1455911308.05256819725036621094,1455911308.05273962020874023438,7528
38,1455911308.14388537406921386719,1455911308.14404964447021484375,7600
39,1455911308.235774993896484375,1455911308.23595905303955078125,7656
40,1455911308.32734465599060058594,1455911308.32750868797302246094,7712
41,1455911308.41918849945068359375,1455911308.41935515403747558594,7760
42,1455911308.51052403450012207031,1455911308.51074433326721191406,7800
43,1455911308.60196924209594726562,1455911308.60213708877563476562,7832
44,1455911308.69412636756896972656,1455911308.69435596466064453125,7856
45,1455911308.78569793701171875,1455911308.78586339950561523438,7880
46,1455911308.87832283973693847656,1455911308.87849187850952148438,7888
47,1455911308.96979093551635742188,1455911308.96995592117309570312,7888
48,1455911309.06195712089538574219,1455911309.06213045120239257812,7888
49,1455911309.15312862396240234375,1455911309.15337634086608886719,7880
50,1455911309.24474883079528808594,1455911309.24491333961486816406,7864
51,1455911309.33696079254150390625,1455911309.33712601661682128906,7832
52,1455911309.42823839187622070312,1455911309.42840504646301269531,7800
53,1455911309.52047371864318847656,1455911309.5206394195556640625,7760
54,1455911309.61212897300720214844,1455911309.61236453056335449219,7720
55,1455911309.70468473434448242188,1455911309.70485782623291015625,7664
56,1455911309.7959308624267578125,1455911309.79609322547912597656,7608
57,1455911309.88802647590637207031,1455911309.88819646835327148438,7536
58,1455911309.98131775856018066406,1455911309.98155713081359863281,7464
59,1455911310.0732517242431640625,1455911310.07343268394470214844,7392
60,1455911310.16629958152770996094,1455911310.166473388671875,7304
61,1455911310.25770783424377441406,1455911310.25787830352783203125,7216
62,1455911310.34954738616943359375,1455911310.34972023963928222656,7128
63,1455911310.44055390357971191406,1455911310.44073653221130371094,7032
64,1455911310.53313875198364257812,1455911310.53331089019775390625,6928
65,1455911310.62763071060180664062,1455911310.62780165672302246094,6824
66,1455911310.7190093994140625,1455911310.719181060791015625,6712
67,1455911310.81120777130126953125,1455911310.81138110160827636719,6608
68,1455911310.90285515785217285156,1455911310.90301728248596191406,6496
69,1455911310.99512839317321777344,1455911310.99531316757202148438,6384
70,1455911311.08630657196044921875,1455911311.08647632598876953125,6264
71,1455911311.17779588699340820312,1455911311.17796492576599121094,6152
72,1455911311.27030539512634277344,1455911311.27053952217102050781,6032
73,1455911311.36170792579650878906,1455911311.36187434196472167969,5920
74,1455911311.45374393463134765625,1455911311.45390582084655761719,5808
75,1455911311.54478573799133300781,1455911311.54495191574096679688,5696
76,1455911311.63671779632568359375,1455911311.63688993453979492188,5584
77,1455911311.7273159027099609375,1455911311.72755169868469238281,5472
78,1455911311.81857466697692871094,1455911311.81874155998229980469,5368
79,1455911311.91037201881408691406,1455911311.91055440902709960938,5264
80,1455911312.00140810012817382812,1455911312.00157332420349121094,5168
81,1455911312.09391379356384277344,1455911312.094081878662109375,5064
82,1455911312.18464350700378417969,1455911312.18480658531188964844,4976
83,1455911312.27647733688354492188,1455911312.27664256095886230469,4888
84,1455911312.36740255355834960938,1455911312.36757135391235351562,4808
85,1455911312.45805692672729492188,1455911312.45822358131408691406,4728
86,1455911312.54949116706848144531,1455911312.54966187477111816406,4656
87,1455911312.64064550399780273438,1455911312.64081287384033203125,4592
88,1455911312.73259067535400390625,1455911312.7327632904052734375,4528
89,1455911312.82334280014038085938,1455911312.8235301971435546875,4472
90,1455911312.91587734222412109375,1455911312.91605019569396972656,4424
91,1455911313.0064792633056640625,1455911313.00664615631103515625,4384
92,1455911313.09726667404174804688,1455911313.09743332862854003906,4352
93,1455911313.18879652023315429688,1455911313.18896436691284179688,4328
94,1455911313.27958726882934570312,1455911313.27975344657897949219,4312
95,1455911313.3712291717529296875,1455911313.37153959274291992188,4296
96,1455911313.46192955970764160156,1455911313.462093353271484375,4296
97,1455911313.55336785316467285156,1455911313.55353713035583496094,4296
98,1455911313.64405035972595214844,1455911313.64422512054443359375,4304
99,1455911313.73512482643127441406,1455911313.73537230491638183594,4320
100,1455911313.82700181007385253906,1455911313.82723689079284667969,4344
101,1455911313.91846919059753417969,1455911313.91863679885864257812,4376
102,1455911314.00996446609497070312,1455911314.01013088226318359375,4416
103,1455911314.10058522224426269531,1455911314.10074782371520996094,4464
104,1455911314.19218349456787109375,1455911314.19240713119506835938,4512
105,1455911314.28316593170166015625,1455911314.28333401679992675781,4568
106,1455911314.37407803535461425781,1455911314.37424731254577636719,4632
107,1455911314.46569275856018066406,1455911314.46591901779174804688,4704
108,1455911314.55699515342712402344,1455911314.55715918540954589844,4784
109,1455911314.649608612060546875,1455911314.6497974395751953125,4864
110,1455911314.74083018302917480469,1455911314.74100279808044433594,4952
111,1455911314.83245921134948730469,1455911314.83263492584228515625,5040
112,1455911314.92324209213256835938,1455911314.92341494560241699219,5136
113,1455911315.01465940475463867188,1455911315.01497316360473632812,5232
114,1455911315.10632443428039550781,1455911315.10656332969665527344,5336
115,1455911315.19758009910583496094,1455911315.197750091552734375,5440
116,1455911315.29005908966064453125,1455911315.29023408889770507812,5552
117,1455911315.381717681884765625,1455911315.38195013999938964844,5664
118,1455911315.47403264045715332031,1455911315.4742031097412109375,5776
119,1455911315.565212249755859375,1455911315.56547021865844726562,5888
120,1455911315.65668129920959472656,1455911315.65684938430786132812,6008
121,1455911315.74836373329162597656,1455911315.74853682518005371094,6120
122,1455911315.83959984779357910156,1455911315.83976650238037109375,6232
123,1455911315.93111324310302734375,1455911315.93143987655639648438,6352
124,1455911316.02219986915588378906,1455911316.02242112159729003906,6464
125,1455911316.11400318145751953125,1455911316.11422133445739746094,6576
126,1455911316.20515990257263183594,1455911316.20532464981079101562,6680
127,1455911316.29635214805603027344,1455911316.29653120040893554688,6792
128,1455911316.39007019996643066406,1455911316.39024281501770019531,6896
129,1455911316.48429059982299804688,1455911316.48448514938354492188,7000
130,1455911316.57686638832092285156,1455911316.57709479331970214844,7096
131,1455911316.66847896575927734375,1455911316.66864037513732910156,7192
132,1455911316.76046395301818847656,1455911316.76069307327270507812,7280
133,1455911316.85187387466430664062,1455911316.85204195976257324219,7368
134,1455911316.94334840774536132812,1455911316.94352078437805175781,7448
135,1455911317.03495717048645019531,1455911317.03512907028198242188,7520
136,1455911317.12624955177307128906,1455911317.12641596794128417969,7584
137,1455911317.218883514404296875,1455911317.2190532684326171875,7648
138,1455911317.31016278266906738281,1455911317.31032800674438476562,7704
139,1455911317.40213680267333984375,1455911317.40231561660766601562,7752
140,1455911317.49336385726928710938,1455911317.49353003501892089844,7792
141,1455911317.58504319190979003906,1455911317.58521270751953125,7824
142,1455911317.676914215087890625,1455911317.67708039283752441406,7856
143,1455911317.76867008209228515625,1455911317.76883339881896972656,7872
144,1455911317.86113262176513671875,1455911317.86130261421203613281,7888
145,1455911317.95256471633911132812,1455911317.95272612571716308594,7888
146,1455911318.04511475563049316406,1455911318.04528665542602539062,7888
147,1455911318.1367702484130859375,1455911318.13693690299987792969,7880
148,1455911318.22805714607238769531,1455911318.22822642326354980469,7864
149,1455911318.31993985176086425781,1455911318.32011961936950683594,7840
150,1455911318.41123342514038085938,1455911318.4113979339599609375,7808
151,1455911318.50344944000244140625,1455911318.50362324714660644531,7768
152,1455911318.59518742561340332031,1455911318.59536218643188476562,7728
153,1455911318.68782877922058105469,1455911318.68800330162048339844,7672
154,1455911318.7797489166259765625,1455911318.77991962432861328125,7616
155,1455911318.87159585952758789062,1455911318.87176847457885742188,7552
156,1455911318.96363902091979980469,1455911318.96387362480163574219,7480
157,1455911319.05502033233642578125,1455911319.05518126487731933594,7408
158,1455911319.14723992347717285156,1455911319.14746522903442382812,7320
159,1455911319.23863053321838378906,1455911319.23882222175598144531,7240
160,1455911319.33094429969787597656,1455911319.33116912841796875,7144
161,1455911319.42238521575927734375,1455911319.42255139350891113281,7048
162,1455911319.51417565345764160156,1455911319.51434922218322753906,6952
163,1455911319.60670447349548339844,1455911319.60687947273254394531,6848
164,1455911319.698230743408203125,1455911319.698394775390625,6744
165,1455911319.79027867317199707031,1455911319.79045009613037109375,6632
166,1455911319.88191890716552734375,1455911319.88208532333374023438,6520
167,1455911319.97390151023864746094,1455911319.9740734100341796875,6408
168,1455911320.06502509117126464844,1455911320.06519412994384765625,6296
169,1455911320.1564617156982421875,1455911320.15664935111999511719,6176
170,1455911320.2483062744140625,1455911320.24847698211669921875,6064
171,1455911320.33935070037841796875,1455911320.33952355384826660156,5952
172,1455911320.43167805671691894531,1455911320.43184328079223632812,5832
173,1455911320.52301073074340820312,1455911320.52318358421325683594,5720
174,1455911320.61525750160217285156,1455911320.61542677879333496094,5608
175,1455911320.70675349235534667969,1455911320.70692515373229980469,5496
176,1455911320.79814958572387695312,1455911320.7983188629150390625,5392
177,1455911320.88970541954040527344,1455911320.88986349105834960938,5288
178,1455911320.980808258056640625,1455911320.98097372055053710938,5184
179,1455911321.07261562347412109375,1455911321.07280111312866210938,5088
180,1455911321.16418671607971191406,1455911321.16435933113098144531,4992
181,1455911321.25642681121826171875,1455911321.25663733482360839844,4904
182,1455911321.34741973876953125,1455911321.34759402275085449219,4824
183,1455911321.43850684165954589844,1455911321.43867182731628417969,4744
184,1455911321.53009772300720214844,1455911321.53033614158630371094,4672
185,1455911321.62133026123046875,1455911321.62149882316589355469,4600
186,1455911321.712978363037109375,1455911321.7131500244140625,4544
187,1455911321.80350708961486816406,1455911321.80373549461364746094,4488
188,1455911321.89510655403137207031,1455911321.89527535438537597656,4440
189,1455911321.98595261573791503906,1455911321.98613834381103515625,4400
190,1455911322.07731533050537109375,1455911322.07748508453369140625,4360
191,1455911322.16934680938720703125,1455911322.16953253746032714844,4336
192,1455911322.26079559326171875,1455911322.26096391677856445312,4312
193,1455911322.35238480567932128906,1455911322.35260987281799316406,4296
194,1455911322.4431133270263671875,1455911322.44327974319458007812,4296
195,1455911322.53477764129638671875,1455911322.53509998321533203125,4296
196,1455911322.62560892105102539062,1455911322.62577939033508300781,4304
197,1455911322.71655225753784179688,1455911322.716732025146484375,4320
198,1455911322.8080425262451171875,1455911322.80821251869201660156,4344
199,1455911322.89897203445434570312,1455911322.89915513992309570312,4368
200,1455911322.99139308929443359375,1455911322.99156546592712402344,4408
201,1455911323.08244848251342773438,1455911323.08261919021606445312,4448
202,1455911323.17421698570251464844,1455911323.17438864707946777344,4504
203,1455911323.2648601531982421875,1455911323.26502585411071777344,4560
204,1455911323.35585761070251464844,1455911323.3560276031494140625,4624
205,1455911323.44729685783386230469,1455911323.44746685028076171875,4688
206,1455911323.53808641433715820312,1455911323.53841328620910644531,4768
207,1455911323.62970447540283203125,1455911323.63000440597534179688,4848
208,1455911323.72086405754089355469,1455911323.7210369110107421875,4928
209,1455911323.81230998039245605469,1455911323.81265330314636230469,5024
210,1455911323.90297460556030273438,1455911323.90314483642578125,5112
211,1455911323.99405336380004882812,1455911323.99422526359558105469,5208
212,1455911324.08537387847900390625,1455911324.08568739891052246094,5312
213,1455911324.1763095855712890625,1455911324.17647790908813476562,5416
214,1455911324.26827883720397949219,1455911324.26851010322570800781,5528
215,1455911324.3593044281005859375,1455911324.35947275161743164062,5640
216,1455911324.45100355148315429688,1455911324.45117449760437011719,5752
217,1455911324.54180812835693359375,1455911324.54207587242126464844,5864
218,1455911324.63339018821716308594,1455911324.63356089591979980469,5976
219,1455911324.725452423095703125,1455911324.72569966316223144531,6088
220,1455911324.81664967536926269531,1455911324.8168182373046875,6208
221,1455911324.90847611427307128906,1455911324.90864324569702148438,6320
222,1455911324.99909090995788574219,1455911324.99925470352172851562,6432
223,1455911325.09098386764526367188,1455911325.09114980697631835938,6544
224,1455911325.18169856071472167969,1455911325.18191981315612792969,6656
225,1455911325.27258610725402832031,1455911325.27275538444519042969,6760
226,1455911325.36426091194152832031,1455911325.36442542076110839844,6872
227,1455911325.45544123649597167969,1455911325.45560598373413085938,6968
228,1455911325.54802489280700683594,1455911325.548191070556640625,7072
229,1455911325.63937520980834960938,1455911325.63962244987487792969,7160
230,1455911325.73156213760375976562,1455911325.73174953460693359375,7256
231,1455911325.82296514511108398438,1455911325.82313108444213867188,7336
232,1455911325.91487812995910644531,1455911325.91510248184204101562,7424
233,1455911326.00802659988403320312,1455911326.00819230079650878906,7496
234,1455911326.0997600555419921875,1455911326.09992456436157226562,7568
235,1455911326.19270801544189453125,1455911326.19287919998168945312,7632
236,1455911326.28434324264526367188,1455911326.28450798988342285156,7688
237,1455911326.37600684165954589844,1455911326.37616991996765136719,7736
238,1455911326.46731019020080566406,1455911326.46747469902038574219,7776
239,1455911326.55902242660522460938,1455911326.55920839309692382812,7816
240,1455911326.65143108367919921875,1455911326.65159654617309570312,7848
241,1455911326.74279379844665527344,1455911326.74295496940612792969,7872
242,1455911326.83504652976989746094,1455911326.83521032333374023438,7880
243,1455911326.92659735679626464844,1455911326.92682623863220214844,7888
244,1455911327.01910400390625,1455911327.01927447319030761719,7888
245,1455911327.11022186279296875,1455911327.11045169830322265625,7888
246,1455911327.20233631134033203125,1455911327.20250821113586425781,7872
247,1455911327.29429984092712402344,1455911327.29447007179260253906,7848
248,1455911327.38559699058532714844,1455911327.38583278656005859375,7816
249,1455911327.47768163681030273438,1455911327.47786736488342285156,7784
250,1455911327.56918168067932128906,1455911327.56944012641906738281,7736
251,1455911327.66161799430847167969,1455911327.66179037094116210938,7688
252,1455911327.75336456298828125,1455911327.75353240966796875,7632
253,1455911327.84501862525939941406,1455911327.84519314765930175781,7568
254,1455911327.93788027763366699219,1455911327.93804883956909179688,7504
255,1455911328.02928805351257324219,1455911328.02946877479553222656,7424
256,1455911328.12450909614562988281,1455911328.12467694282531738281,7344
257,1455911328.22200226783752441406,1455911328.22217583656311035156,7256
258,1455911328.31419730186462402344,1455911328.31437277793884277344,7160
259,1455911328.40548563003540039062,1455911328.4056758880615234375,7064
260,1455911328.49718403816223144531,1455911328.49735522270202636719,6968
261,1455911328.58926343917846679688,1455911328.5894336700439453125,6864
262,1455911328.68074798583984375,1455911328.68092179298400878906,6760
263,1455911328.77371549606323242188,1455911328.77388763427734375,6648
264,1455911328.86551427841186523438,1455911328.86568546295166015625,6536
265,1455911328.9575405120849609375,1455911328.95770978927612304688,6424
266,1455911329.04854846000671386719,1455911329.04871988296508789062,6312
267,1455911329.13983845710754394531,1455911329.14001226425170898438,6200
268,1455911329.23164868354797363281,1455911329.23181962966918945312,6088
269,1455911329.32296156883239746094,1455911329.32321119308471679688,5968
270,1455911329.41506052017211914062,1455911329.41523289680480957031,5856
271,1455911329.5063323974609375,1455911329.50650382041931152344,5744
272,1455911329.59896183013916015625,1455911329.59913349151611328125,5632
273,1455911329.69003605842590332031,1455911329.69020581245422363281,5520
274,1455911329.78105592727661132812,1455911329.78123211860656738281,5408
275,1455911329.87280035018920898438,1455911329.87296938896179199219,5304
276,1455911329.96385598182678222656,1455911329.96402049064636230469,5208
