id, time (s), size (bits)
0,1455911304.24499607086181640625,1455911304.24519681930541992188,4344
1,1455911304.34266710281372070312,1455911304.3428440093994140625,4320
2,1455911304.43349814414978027344,1455911304.43367218971252441406,4304
3,1455911304.52499318122863769531,1455911304.52515697479248046875,4296
4,1455911304.61557126045227050781,1455911304.61580300331115722656,4296
5,1455911304.70706844329833984375,1455911304.70724081993103027344,4296
6,1455911304.79757022857666015625,1455911304.79773640632629394531,4312
7,1455911304.88827490806579589844,1455911304.88844466209411621094,4328
8,1455911304.98082685470581054688,1455911304.98106455802917480469,4360
9,1455911305.07204222679138183594,1455911305.07222628593444824219,4392
10,1455911305.16377186775207519531,1455911305.16394090652465820312,4432
11,1455911305.25510907173156738281,1455911305.25528120994567871094,4480
12,1455911305.34637737274169921875,1455911305.34654521942138671875,4536
13,1455911305.43744301795959472656,1455911305.4376125335693359375,4592
14,1455911305.5277233123779296875,1455911305.52796530723571777344,4664
15,1455911305.6197662353515625,1455911305.61997866630554199219,4736
16,1455911305.71104788780212402344,1455911305.71121454238891601562,4816
17,1455911305.80352044105529785156,1455911305.80368781089782714844,4896
18,1455911305.89452838897705078125,1455911305.89470410346984863281,4984
19,1455911305.98623013496398925781,1455911305.986415863037109375,5080
20,1455911306.07758855819702148438,1455911306.07775759696960449219,5176
21,1455911306.16806364059448242188,1455911306.16823315620422363281,5272
22,1455911306.25991296768188476562,1455911306.26008749008178710938,5376
23,1455911306.3516368865966796875,1455911306.35180807113647460938,5488
24,1455911306.44347834587097167969,1455911306.44364595413208007812,5600
25,1455911306.53488421440124511719,1455911306.53505659103393554688,5704
26,1455911306.62713837623596191406,1455911306.62730884552001953125,5824
27,1455911306.71843957901000976562,1455911306.71861219406127929688,5936
28,1455911306.8089504241943359375,1455911306.80918192863464355469,6048
29,1455911306.90103125572204589844,1455911306.90120816230773925781,6168
30,1455911306.99209189414978027344,1455911306.99225974082946777344,6280
31,1455911307.08420276641845703125,1455911307.08436369895935058594,6392
32,1455911307.17657351493835449219,1455911307.17673993110656738281,6504
33,1455911307.26831769943237304688,1455911307.26848316192626953125,6616
34,1455911307.35947704315185546875,1455911307.35970282554626464844,6728
35,1455911307.4511280059814453125,1455911307.45129632949829101562,6832
36,1455911307.54400110244750976562,1455911307.54417467117309570312,6936
37,1455911307.63517689704895019531,1455911307.63542652130126953125,7040
38,1455911307.72711944580078125,1455911307.72728252410888671875,7136
39,1455911307.81856703758239746094,1455911307.81875109672546386719,7224
40,1455911307.91047811508178710938,1455911307.91070079803466796875,7312
41,1455911308.00189709663391113281,1455911308.00205945968627929688,7392
42,1455911308.09305143356323242188,1455911308.09322285652160644531,7472
43,1455911308.18555045127868652344,1455911308.18586993217468261719,7544
44,1455911308.27686905860900878906,1455911308.27703571319580078125,7608
45,1455911308.36949229240417480469,1455911308.36971950531005859375,7664
46,1455911308.46094059944152832031,1455911308.46110844612121582031,7720
47,1455911308.55314850807189941406,1455911308.55339074134826660156,7768
48,1455911308.64462876319885253906,1455911308.64480066299438476562,7808
49,1455911308.73595905303955078125,1455911308.73614764213562011719,7840
50,1455911308.82827448844909667969,1455911308.82844471931457519531,7864
51,1455911308.91960835456848144531,1455911308.91992616653442382812,7880
52,1455911309.01166987419128417969,1455911309.0118389129638671875,7888
53,1455911309.10327506065368652344,1455911309.10344958305358886719,7888
54,1455911309.19572353363037109375,1455911309.19595026969909667969,7888
55,1455911309.28738379478454589844,1455911309.28761386871337890625,7872
56,1455911309.37878489494323730469,1455911309.37895250320434570312,7856
57,1455911309.4724369049072265625,1455911309.47260570526123046875,7832
58,1455911309.56413435935974121094,1455911309.5643596649169921875,7792
59,1455911309.65746808052062988281,1455911309.65766119956970214844,7752
60,1455911309.74899053573608398438,1455911309.74915838241577148438,7704
61,1455911309.84084987640380859375,1455911309.84101605415344238281,7656
62,1455911309.9319782257080078125,1455911309.93221116065979003906,7592
63,1455911310.02351689338684082031,1455911310.02370166778564453125,7528
64,1455911310.11907458305358886719,1455911310.11924839019775390625,7448
65,1455911310.21033167839050292969,1455911310.21050381660461425781,7368
66,1455911310.30246639251708984375,1455911310.30263829231262207031,7288
67,1455911310.39421200752258300781,1455911310.3943843841552734375,7200
68,1455911310.48640847206115722656,1455911310.48657941818237304688,7104
69,1455911310.57784962654113769531,1455911310.57803583145141601562,7008
70,1455911310.66882395744323730469,1455911310.6689968109130859375,6912
71,1455911310.76169824600219726562,1455911310.76187658309936523438,6800
72,1455911310.85315108299255371094,1455911310.85332059860229492188,6696
73,1455911310.94498467445373535156,1455911310.94515466690063476562,6584
74,1455911311.03623151779174804688,1455911311.03641104698181152344,6472
75,1455911311.12798380851745605469,1455911311.12816262245178222656,6360
76,1455911311.21890711784362792969,1455911311.21908044815063476562,6248
77,1455911311.30981564521789550781,1455911311.30999040603637695312,6136
78,1455911311.40182662010192871094,1455911311.4019985198974609375,6016
79,1455911311.49261355400085449219,1455911311.49285411834716796875,5904
80,1455911311.58514738082885742188,1455911311.58531308174133300781,5792
81,1455911311.67607617378234863281,1455911311.67631459236145019531,5680
82,1455911311.76758790016174316406,1455911311.76775383949279785156,5568
83,1455911311.85898470878601074219,1455911311.85915493965148925781,5456
84,1455911311.94933748245239257812,1455911311.94950914382934570312,5352
85,1455911312.04116749763488769531,1455911312.04154658317565917969,5248
86,1455911312.13207697868347167969,1455911312.13224768638610839844,5152
87,1455911312.22401189804077148438,1455911312.22418284416198730469,5056
88,1455911312.31452059745788574219,1455911312.31469202041625976562,4960
89,1455911312.40718722343444824219,1455911312.40737938880920410156,4872
90,1455911312.49814677238464355469,1455911312.4984569549560546875,4792
91,1455911312.58865451812744140625,1455911312.58881926536560058594,4720
92,1455911312.68039989471435546875,1455911312.68057584762573242188,4648
93,1455911312.77107381820678710938,1455911312.77124071121215820312,4584
94,1455911312.86255931854248046875,1455911312.86273312568664550781,4520
95,1455911312.953334808349609375,1455911312.9535083770751953125,4472
96,1455911313.04473900794982910156,1455911313.04490756988525390625,4424
97,1455911313.13567328453063964844,1455911313.13584232330322265625,4384
98,1455911313.22628736495971679688,1455911313.22645115852355957031,4352
99,1455911313.31861019134521484375,1455911313.31885862350463867188,4328
100,1455911313.40984749794006347656,1455911313.41001868247985839844,4304
101,1455911313.50144481658935546875,1455911313.50174975395202636719,4296
102,1455911313.59188413619995117188,1455911313.59205293655395507812,4296
103,1455911313.68360280990600585938,1455911313.68377518653869628906,4296
104,1455911313.77463483810424804688,1455911313.77480936050415039062,4304
105,1455911313.86515402793884277344,1455911313.86532330513000488281,4328
106,1455911313.95707559585571289062,1455911313.95724940299987792969,4352
107,1455911314.04833221435546875,1455911314.04850435256958007812,4384
108,1455911314.14091348648071289062,1455911314.14114665985107421875,4424
109,1455911314.23223066329956054688,1455911314.23259663581848144531,4472
110,1455911314.32384777069091796875,1455911314.3240184783935546875,4520
111,1455911314.41487526893615722656,1455911314.41504192352294921875,4584
112,1455911314.50586724281311035156,1455911314.50603485107421875,4648
113,1455911314.59795832633972167969,1455911314.59821557998657226562,4720
114,1455911314.68884444236755371094,1455911314.68901515007019042969,4792
115,1455911314.78091931343078613281,1455911314.7810878753662109375,4872
116,1455911314.8729686737060546875,1455911314.87314081192016601562,4960
117,1455911314.96525931358337402344,1455911314.96548318862915039062,5056
118,1455911315.05657696723937988281,1455911315.05674767494201660156,5152
119,1455911315.14799547195434570312,1455911315.14817881584167480469,5256
120,1455911315.23991799354553222656,1455911315.24008870124816894531,5352
121,1455911315.33101797103881835938,1455911315.33118772506713867188,5464
122,1455911315.42263841629028320312,1455911315.42280888557434082031,5568
123,1455911315.51356744766235351562,1455911315.51373815536499023438,5680
124,1455911315.60526728630065917969,1455911315.60543513298034667969,5792
125,1455911315.69668054580688476562,1455911315.69685626029968261719,5912
126,1455911315.78719735145568847656,1455911315.78736996650695800781,6024
127,1455911315.88019895553588867188,1455911315.8803844451904296875,6136
128,1455911315.97549343109130859375,1455911315.9756679534912109375,6256
129,1455911316.06791591644287109375,1455911316.06810903549194335938,6376
130,1455911316.15976452827453613281,1455911316.15993738174438476562,6488
131,1455911316.25175023078918457031,1455911316.25191903114318847656,6600
132,1455911316.34341835975646972656,1455911316.34358525276184082031,6704
133,1455911316.43459558486938476562,1455911316.43476605415344238281,6816
134,1455911316.52637457847595214844,1455911316.52654743194580078125,6920
135,1455911316.61738157272338867188,1455911316.61755275726318359375,7016
136,1455911316.71002078056335449219,1455911316.71019291877746582031,7112
137,1455911316.80139899253845214844,1455911316.80156683921813964844,7208
138,1455911316.89340281486511230469,1455911316.8935718536376953125,7296
139,1455911316.98474717140197753906,1455911316.98499441146850585938,7376
140,1455911317.07601714134216308594,1455911317.07618665695190429688,7456
141,1455911317.16815829277038574219,1455911317.16833138465881347656,7528
142,1455911317.25968337059020996094,1455911317.25985407829284667969,7592
143,1455911317.35247564315795898438,1455911317.35264682769775390625,7656
144,1455911317.44385457038879394531,1455911317.44402623176574707031,7712
145,1455911317.53623223304748535156,1455911317.53640151023864746094,7760
146,1455911317.62802958488464355469,1455911317.62820076942443847656,7800
147,1455911317.71906518936157226562,1455911317.71929478645324707031,7832
148,1455911317.81129813194274902344,1455911317.81146883964538574219,7856
149,1455911317.90242862701416015625,1455911317.90261101722717285156,7880
150,1455911317.99463343620300292969,1455911317.99479818344116210938,7888
151,1455911318.08630490303039550781,1455911318.08654093742370605469,7888
152,1455911318.17894840240478515625,1455911318.17911672592163085938,7888
153,1455911318.27091836929321289062,1455911318.27109313011169433594,7880
154,1455911318.36269831657409667969,1455911318.36287069320678710938,7864
155,1455911318.45509099960327148438,1455911318.45526432991027832031,7832
156,1455911318.546428680419921875,1455911318.54659557342529296875,7800
157,1455911318.6384754180908203125,1455911318.63864922523498535156,7760
158,1455911318.72996592521667480469,1455911318.7301425933837890625,7720
159,1455911318.82211017608642578125,1455911318.82229328155517578125,7664
160,1455911318.91376447677612304688,1455911318.91393280029296875,7608
161,1455911319.00513052940368652344,1455911319.00529956817626953125,7536
162,1455911319.09800243377685546875,1455911319.09824156761169433594,7464
163,1455911319.18936896324157714844,1455911319.189533233642578125,7392
164,1455911319.28148484230041503906,1455911319.28165316581726074219,7304
165,1455911319.37317228317260742188,1455911319.37334752082824707031,7216
166,1455911319.465084075927734375,1455911319.46525049209594726562,7128
167,1455911319.55657553672790527344,1455911319.55674648284912109375,7032
168,1455911319.64760732650756835938,1455911319.6477832794189453125,6936
169,1455911319.73987674713134765625,1455911319.74007129669189453125,6832
170,1455911319.83059525489807128906,1455911319.83076024055480957031,6720
171,1455911319.92284393310546875,1455911319.92314600944519042969,6616
172,1455911320.01436877250671386719,1455911320.01453614234924316406,6504
173,1455911320.10628676414489746094,1455911320.10645794868469238281,6392
174,1455911320.19801020622253417969,1455911320.19817829132080078125,6272
175,1455911320.28928351402282714844,1455911320.28945255279541015625,6160
176,1455911320.38117575645446777344,1455911320.38141155242919921875,6048
177,1455911320.47215318679809570312,1455911320.47231936454772949219,5928
178,1455911320.56395983695983886719,1455911320.56412839889526367188,5816
179,1455911320.65547513961791992188,1455911320.65565800666809082031,5704
180,1455911320.74763584136962890625,1455911320.74795246124267578125,5592
181,1455911320.83891057968139648438,1455911320.83908438682556152344,5480
182,1455911320.92965412139892578125,1455911320.92982029914855957031,5376
183,1455911321.02168393135070800781,1455911321.02205610275268554688,5272
184,1455911321.11267375946044921875,1455911321.11284208297729492188,5168
185,1455911321.20437955856323242188,1455911321.20455050468444824219,5072
186,1455911321.29499650001525878906,1455911321.29516434669494628906,4984
187,1455911321.38647389411926269531,1455911321.3866443634033203125,4896
188,1455911321.477619171142578125,1455911321.47779083251953125,4808
189,1455911321.56823849678039550781,1455911321.56842112541198730469,4736
190,1455911321.66089773178100585938,1455911321.66107201576232910156,4664
191,1455911321.75196313858032226562,1455911321.75215172767639160156,4592
192,1455911321.84370779991149902344,1455911321.8438739776611328125,4536
193,1455911321.93461585044860839844,1455911321.93478751182556152344,4480
194,1455911322.02616953849792480469,1455911322.02650618553161621094,4432
195,1455911322.11710882186889648438,1455911322.11727571487426757812,4392
196,1455911322.20781302452087402344,1455911322.20797967910766601562,4360
197,1455911322.29964852333068847656,1455911322.29982042312622070312,4328
198,1455911322.39025115966796875,1455911322.39041662216186523438,4312
199,1455911322.48263978958129882812,1455911322.48281979560852050781,4296
200,1455911322.57390809059143066406,1455911322.57407712936401367188,4296
201,1455911322.66571950912475585938,1455911322.66588926315307617188,4296
202,1455911322.75626969337463378906,1455911322.7566432952880859375,4304
203,1455911322.84720182418823242188,1455911322.84736895561218261719,4320
204,1455911322.93887925148010253906,1455911322.93904995918273925781,4344
205,1455911323.02956819534301757812,1455911323.02979588508605957031,4376
206,1455911323.12100887298583984375,1455911323.12124586105346679688,4416
207,1455911323.21224713325500488281,1455911323.21242022514343261719,4456
208,1455911323.30363154411315917969,1455911323.30380511283874511719,4512
209,1455911323.39450955390930175781,1455911323.39469933509826660156,4568
210,1455911323.48521637916564941406,1455911323.48538303375244140625,4632
211,1455911323.57695794105529785156,1455911323.57712626457214355469,4696
212,1455911323.66771101951599121094,1455911323.66788506507873535156,4776
213,1455911323.75936651229858398438,1455911323.75953745841979980469,4856
214,1455911323.85065627098083496094,1455911323.85082793235778808594,4944
215,1455911323.94236302375793457031,1455911323.94253945350646972656,5032
216,1455911324.03319597244262695312,1455911324.03336477279663085938,5128
217,1455911324.12443518638610839844,1455911324.1246089935302734375,5224
218,1455911324.21694064140319824219,1455911324.21711325645446777344,5328
219,1455911324.30781388282775878906,1455911324.30800294876098632812,5432
220,1455911324.39984607696533203125,1455911324.40001606941223144531,5544
221,1455911324.49064373970031738281,1455911324.49087691307067871094,5656
222,1455911324.58226847648620605469,1455911324.58243775367736816406,5768
223,1455911324.67358303070068359375,1455911324.67375493049621582031,5880
224,1455911324.76370191574096679688,1455911324.76387357711791992188,5992
225,1455911324.85576963424682617188,1455911324.855998992919921875,6104
226,1455911324.94669985771179199219,1455911324.94686341285705566406,6224
227,1455911325.03920722007751464844,1455911325.03937196731567382812,6336
228,1455911325.13061666488647460938,1455911325.13079142570495605469,6448
229,1455911325.22263312339782714844,1455911325.22281146049499511719,6560
230,1455911325.31440424919128417969,1455911325.314571380615234375,6672
231,1455911325.40579128265380859375,1455911325.40595936775207519531,6784
232,1455911325.49900412559509277344,1455911325.49917268753051757812,6888
233,1455911325.59083771705627441406,1455911325.59100937843322753906,6992
234,1455911325.68377327919006347656,1455911325.68394446372985839844,7088
235,1455911325.77536487579345703125,1455911325.77553987503051757812,7184
236,1455911325.86725974082946777344,1455911325.86742305755615234375,7272
237,1455911325.958770751953125,1455911325.95894408226013183594,7360
238,1455911326.04988884925842285156,1455911326.05006313323974609375,7432
239,1455911326.14274263381958007812,1455911326.14292931556701660156,7512
240,1455911326.23401713371276855469,1455911326.23418426513671875,7576
241,1455911326.32617139816284179688,1455911326.32633900642395019531,7640
242,1455911326.41780018806457519531,1455911326.41797161102294921875,7696
243,1455911326.51026320457458496094,1455911326.51042628288269042969,7744
244,1455911326.60161256790161132812,1455911326.60178446769714355469,7784
245,1455911326.69318127632141113281,1455911326.69334936141967773438,7824
246,1455911326.78549027442932128906,1455911326.78572201728820800781,7848
247,1455911326.87689065933227539062,1455911326.87705922126770019531,7872
248,1455911326.96893477439880371094,1455911326.96910238265991210938,7888
249,1455911327.06050896644592285156,1455911327.06069803237915039062,7888
250,1455911327.15249371528625488281,1455911327.1526622772216796875,7888
251,1455911327.24468946456909179688,1455911327.24485492706298828125,7880
252,1455911327.33593416213989257812,1455911327.33610224723815917969,7864
253,1455911327.42908453941345214844,1455911327.42925930023193359375,7840
254,1455911327.52051424980163574219,1455911327.52068448066711425781,7816
255,1455911327.61272668838500976562,1455911327.61291360855102539062,7776
256,1455911327.71308827400207519531,1455911327.71326756477355957031,7728
257,1455911327.80529427528381347656,1455911327.805454254150390625,7672
258,1455911327.89666843414306640625,1455911327.89683890342712402344,7616
259,1455911327.9882297515869140625,1455911327.9884166717529296875,7552
260,1455911328.08048534393310546875,1455911328.08072137832641601562,7480
261,1455911328.17186856269836425781,1455911328.17204356193542480469,7408
262,1455911328.26482892036437988281,1455911328.2649993896484375,7320
263,1455911328.35672783851623535156,1455911328.35689997673034667969,7240
264,1455911328.4487743377685546875,1455911328.44894766807556152344,7144
265,1455911328.5399875640869140625,1455911328.54016757011413574219,7048
266,1455911328.63088464736938476562,1455911328.6310577392578125,6952
267,1455911328.72298550605773925781,1455911328.72321414947509765625,6848
268,1455911328.81418609619140625,1455911328.81435871124267578125,6744
269,1455911328.90624332427978515625,1455911328.90642380714416503906,6632
270,1455911328.99757313728332519531,1455911328.99774575233459472656,6520
271,1455911329.09012722969055175781,1455911329.09036207199096679688,6408
272,1455911329.18144679069519042969,1455911329.18162298202514648438,6296
273,1455911329.27228784561157226562,1455911329.27246212959289550781,6184
274,1455911329.36425256729125976562,1455911329.36458563804626464844,6064
275,1455911329.45518732070922851562,1455911329.45536136627197265625,5952
