id, time (s), size (bits)
0,1456097434.98459029197692871094,1456097434.985870361328125,7664
1,1456097435.09799838066101074219,1456097435.09928846359252929688,4952
2,1456097435.17494726181030273438,1456097435.17644047737121582031,5056
3,1456097435.25341010093688964844,1456097435.25467467308044433594,5136
4,1456097435.33294081687927246094,1456097435.33424925804138183594,5224
5,1456097435.41397595405578613281,1456097435.41537547111511230469,5312
6,1456097435.49606966972351074219,1456097435.49732518196105957031,5408
7,1456097435.57924938201904296875,1456097435.58066534996032714844,5504
8,1456097435.66425204277038574219,1456097435.66558670997619628906,5608
9,1456097435.75030064582824707031,1456097435.75168085098266601562,5712
10,1456097435.83823680877685546875,1456097435.83950281143188476562,5824
11,1456097435.92760920524597167969,1456097435.92886877059936523438,5936
12,1456097436.01848864555358886719,1456097436.01986861228942871094,6048
13,1456097436.11108994483947753906,1456097436.112361907958984375,6168
14,1456097436.20536470413208007812,1456097436.20678186416625976562,6280
15,1456097436.3011913299560546875,1456097436.30246591567993164062,6400
16,1456097436.39891934394836425781,1456097436.40042471885681152344,6520
17,1456097436.49799752235412597656,1456097436.49924325942993164062,6640
18,1456097436.59910130500793457031,1456097436.60035252571105957031,6760
19,1456097436.70187401771545410156,1456097436.703159332275390625,6880
20,1456097436.806644439697265625,1456097436.80792546272277832031,6992
21,1456097436.91240644454956054688,1456097436.91365170478820800781,7104
22,1456097437.02015542984008789062,1456097437.0214328765869140625,7216
23,1456097437.12936305999755859375,1456097437.1306247711181640625,7320
24,1456097437.23997950553894042969,1456097437.24123501777648925781,7416
25,1456097437.35250163078308105469,1456097437.35392737388610839844,7512
26,1456097437.46571946144104003906,1456097437.46703457832336425781,7592
27,1456097437.58022308349609375,1456097437.5814952850341796875,7664
28,1456097437.69620823860168457031,1456097437.69750928878784179688,7728
29,1456097437.81246066093444824219,1456097437.81372976303100585938,7784
30,1456097437.9299297332763671875,1456097437.9311809539794921875,7832
31,1456097438.04811763763427734375,1456097438.04938220977783203125,7864
32,1456097438.16655969619750976562,1456097438.16802453994750976562,7880
33,1456097438.28508710861206054688,1456097438.28583168983459472656,7888
34,1456097438.40395498275756835938,1456097438.40533733367919921875,7888
35,1456097438.52284717559814453125,1456097438.52410221099853515625,7872
36,1456097438.64146137237548828125,1456097438.64271903038024902344,7840
37,1456097438.75981807708740234375,1456097438.76124119758605957031,7800
38,1456097438.87748885154724121094,1456097438.8787479400634765625,7752
39,1456097438.99413371086120605469,1456097438.99542117118835449219,7688
40,1456097439.11013460159301757812,1456097439.1113910675048828125,7616
41,1456097439.22513818740844726562,1456097439.22655892372131347656,7536
42,1456097439.339054107666015625,1456097439.34032034873962402344,7440
43,1456097439.451503753662109375,1456097439.45291829109191894531,7344
44,1456097439.56241083145141601562,1456097439.56372714042663574219,7240
45,1456097439.672039031982421875,1456097439.67329835891723632812,7128
46,1456097439.78005242347717285156,1456097439.78131222724914550781,7016
47,1456097439.88663840293884277344,1456097439.8880214691162109375,6904
48,1456097439.99139642715454101562,1456097439.99269127845764160156,6784
49,1456097440.09443259239196777344,1456097440.09586691856384277344,6656
50,1456097440.19580721855163574219,1456097440.19710755348205566406,6536
51,1456097440.29542374610900878906,1456097440.29691481590270996094,6416
52,1456097440.39300513267517089844,1456097440.39440178871154785156,6296
53,1456097440.48914313316345214844,1456097440.49041986465454101562,6176
54,1456097440.5837764739990234375,1456097440.58504486083984375,6056
55,1456097440.67641186714172363281,1456097440.67767047882080078125,5936
56,1456097440.76730751991271972656,1456097440.76856327056884765625,5824
57,1456097440.85685658454895019531,1456097440.85812735557556152344,5712
58,1456097440.94425368309020996094,1456097440.94551682472229003906,5608
59,1456097441.03072404861450195312,1456097441.03199815750122070312,5504
60,1456097441.11599636077880859375,1456097441.11726903915405273438,5400
61,1456097441.19876265525817871094,1456097441.20016002655029296875,5304
62,1456097441.28074002265930175781,1456097441.28199410438537597656,5216
63,1456097441.36136031150817871094,1456097441.36263585090637207031,5128
64,1456097441.44080185890197753906,1456097441.44252681732177734375,5048
65,1456097441.51902723312377929688,1456097441.5203094482421875,4968
66,1456097441.59634065628051757812,1456097441.59759187698364257812,4888
67,1456097441.67220759391784667969,1456097441.67353081703186035156,4824
68,1456097441.74750995635986328125,1456097441.74878215789794921875,4760
69,1456097441.82165598869323730469,1456097441.82296681404113769531,4696
70,1456097441.8947582244873046875,1456097441.8963375091552734375,4640
71,1456097441.96742296218872070312,1456097441.96870207786560058594,4584
72,1456097442.03887701034545898438,1456097442.04012131690979003906,4536
73,1456097442.11012363433837890625,1456097442.11137080192565917969,4496
74,1456097442.18019056320190429688,1456097442.18145871162414550781,4456
75,1456097442.25006723403930664062,1456097442.25132870674133300781,4424
76,1456097442.31939005851745605469,1456097442.32064676284790039062,4392
77,1456097442.38848471641540527344,1456097442.38976645469665527344,4360
78,1456097442.45691061019897460938,1456097442.45816755294799804688,4344
79,1456097442.52515363693237304688,1456097442.52668905258178710938,4320
80,1456097442.5928745269775390625,1456097442.59414124488830566406,4312
81,1456097442.66060161590576171875,1456097442.66185665130615234375,4296
82,1456097442.72822260856628417969,1456097442.72952961921691894531,4296
83,1456097442.79556941986083984375,1456097442.79695677757263183594,4296
84,1456097442.86325931549072265625,1456097442.86452054977416992188,4296
85,1456097442.93064975738525390625,1456097442.93194699287414550781,4304
86,1456097442.99846100807189941406,1456097442.99971604347229003906,4312
87,1456097443.06627988815307617188,1456097443.06752681732177734375,4328
88,1456097443.134433746337890625,1456097443.13596320152282714844,4344
89,1456097443.20228791236877441406,1456097443.2035465240478515625,4368
90,1456097443.27105355262756347656,1456097443.2723178863525390625,4392
91,1456097443.33996796607971191406,1456097443.34121775627136230469,4424
92,1456097443.40933918952941894531,1456097443.41059851646423339844,4456
93,1456097443.47902417182922363281,1456097443.48031949996948242188,4496
94,1456097443.54958677291870117188,1456097443.55084180831909179688,4536
95,1456097443.62043285369873046875,1456097443.62164950370788574219,4584
96,1456097443.69219994544982910156,1456097443.69346189498901367188,4640
97,1456097443.76473498344421386719,1456097443.76617455482482910156,4688
98,1456097443.83797931671142578125,1456097443.83934235572814941406,4752
99,1456097443.91182994842529296875,1456097443.91311359405517578125,4816
100,1456097443.98709177970886230469,1456097443.98835492134094238281,4880
101,1456097444.062732696533203125,1456097444.06399822235107421875,4952
102,1456097444.13965654373168945312,1456097444.14101934432983398438,5032
103,1456097444.218112945556640625,1456097444.21937322616577148438,5112
104,1456097444.29701828956604003906,1456097444.29826307296752929688,5200
105,1456097444.37760066986083984375,1456097444.37887215614318847656,5288
106,1456097444.45908093452453613281,1456097444.46034264564514160156,5376
107,1456097444.5421142578125,1456097444.54348349571228027344,5472
108,1456097444.62670731544494628906,1456097444.62798285484313964844,5576
109,1456097444.71220231056213378906,1456097444.713470458984375,5680
110,1456097444.79954409599304199219,1456097444.800792694091796875,5784
111,1456097444.88854718208312988281,1456097444.88976621627807617188,5896
112,1456097444.97873616218566894531,1456097444.97999262809753417969,6008
113,1456097445.07080054283142089844,1456097445.07207632064819335938,6128
114,1456097445.16452312469482421875,1456097445.16589999198913574219,6248
115,1456097445.26016354560852050781,1456097445.26143193244934082031,6360
116,1456097445.35720372200012207031,1456097445.35845494270324707031,6480
117,1456097445.45580458641052246094,1456097445.45711517333984375,6600
118,1456097445.55626678466796875,1456097445.55752611160278320312,6720
119,1456097445.65842580795288085938,1456097445.659717559814453125,6840
120,1456097445.7623386383056640625,1456097445.76361727714538574219,6960
121,1456097445.86826658248901367188,1456097445.86951279640197753906,7072
122,1456097445.97489213943481445312,1456097445.97630476951599121094,7184
123,1456097446.08369398117065429688,1456097446.08492875099182128906,7288
124,1456097446.19452786445617675781,1456097446.19591426849365234375,7384
125,1456097446.30601739883422851562,1456097446.30729961395263671875,7480
126,1456097446.41866421699523925781,1456097446.41997742652893066406,7568
127,1456097446.53303933143615722656,1456097446.53430914878845214844,7640
128,1456097446.64865136146545410156,1456097446.65078186988830566406,7712
129,1456097446.76470136642456054688,1456097446.76582360267639160156,7768
130,1456097446.88213610649108886719,1456097446.88337993621826171875,7816
131,1456097446.99982738494873046875,1456097447.00110387802124023438,7856
132,1456097447.11816120147705078125,1456097447.11942458152770996094,7880
133,1456097447.23707079887390136719,1456097447.23833918571472167969,7888
134,1456097447.35577535629272460938,1456097447.35725903511047363281,7888
135,1456097447.47450470924377441406,1456097447.47588014602661132812,7880
136,1456097447.59325528144836425781,1456097447.59451937675476074219,7856
137,1456097447.71161723136901855469,1456097447.7128658294677734375,7816
138,1456097447.82950925827026367188,1456097447.83078670501708984375,7768
139,1456097447.94677281379699707031,1456097447.94806146621704101562,7712
140,1456097448.0630664825439453125,1456097448.06432461738586425781,7640
141,1456097448.17829060554504394531,1456097448.17954111099243164062,7560
142,1456097448.29258608818054199219,1456097448.29386544227600097656,7472
143,1456097448.40541720390319824219,1456097448.40686893463134765625,7376
144,1456097448.51714086532592773438,1456097448.51841306686401367188,7272
145,1456097448.62708306312561035156,1456097448.62848210334777832031,7168
146,1456097448.7354907989501953125,1456097448.73692393302917480469,7056
147,1456097448.8424358367919921875,1456097448.84369564056396484375,6936
148,1456097448.94853496551513671875,1456097448.94979405403137207031,6816
149,1456097449.05128312110900878906,1456097449.05261468887329101562,6696
150,1456097449.15326094627380371094,1456097449.15458059310913085938,6576
151,1456097449.25357294082641601562,1456097449.25483965873718261719,6456
152,1456097449.35174393653869628906,1456097449.35301685333251953125,6336
153,1456097449.4483165740966796875,1456097449.44957470893859863281,6208
154,1456097449.54340720176696777344,1456097449.5446643829345703125,6096
155,1456097449.63660550117492675781,1456097449.63787555694580078125,5976
156,1456097449.72804474830627441406,1456097449.729305267333984375,5856
157,1456097449.81792449951171875,1456097449.81918454170227050781,5752
158,1456097449.90621495246887207031,1456097449.90757226943969726562,5640
159,1456097449.99291300773620605469,1456097449.9941844940185546875,5536
160,1456097450.07874608039855957031,1456097450.08000898361206054688,5432
161,1456097450.1618499755859375,1456097450.16310214996337890625,5336
162,1456097450.24432229995727539062,1456097450.24557375907897949219,5248
163,1456097450.3253765106201171875,1456097450.32686781883239746094,5152
164,1456097450.40525150299072265625,1456097450.40667772293090820312,5072
165,1456097450.48395395278930664062,1456097450.48521280288696289062,4992
166,1456097450.56139636039733886719,1456097450.56265139579772949219,4920
167,1456097450.63794231414794921875,1456097450.63925075531005859375,4848
168,1456097450.71348929405212402344,1456097450.71473073959350585938,4776
169,1456097450.7882061004638671875,1456097450.78949785232543945312,4720
170,1456097450.86131000518798828125,1456097450.86257600784301757812,4656
171,1456097450.93408989906311035156,1456097450.9355525970458984375,4608
172,1456097451.00600123405456542969,1456097451.00726318359375,4560
173,1456097451.07753682136535644531,1456097451.07881569862365722656,4512
174,1456097451.14778375625610351562,1456097451.14901041984558105469,4472
175,1456097451.21800017356872558594,1456097451.21924614906311035156,4432
176,1456097451.28727197647094726562,1456097451.28852105140686035156,4400
177,1456097451.35666108131408691406,1456097451.35794305801391601562,4376
178,1456097451.42511057853698730469,1456097451.42583322525024414062,4352
179,1456097451.49347066879272460938,1456097451.49474239349365234375,4328
180,1456097451.56125307083129882812,1456097451.56253933906555175781,4312
181,1456097451.62923026084899902344,1456097451.63049626350402832031,4304
182,1456097451.69689393043518066406,1456097451.69814133644104003906,4296
183,1456097451.76470303535461425781,1456097451.766124725341796875,4296
184,1456097451.83188271522521972656,1456097451.83314228057861328125,4296
185,1456097451.89955663681030273438,1456097451.90082788467407226562,4296
186,1456097451.96714282035827636719,1456097451.9683895111083984375,4304
187,1456097452.03489923477172851562,1456097452.03636097908020019531,4320
188,1456097452.10258150100708007812,1456097452.103839874267578125,4336
189,1456097452.170745849609375,1456097452.17201924324035644531,4352
190,1456097452.23904776573181152344,1456097452.2404270172119140625,4376
191,1456097452.30783009529113769531,1456097452.30911612510681152344,4408
192,1456097452.37704014778137207031,1456097452.37830018997192382812,4440
193,1456097452.44658446311950683594,1456097452.44785523414611816406,4480
194,1456097452.51650738716125488281,1456097452.51916003227233886719,4520
195,1456097452.58731794357299804688,1456097452.58862829208374023438,4560
196,1456097452.658966064453125,1456097452.66023588180541992188,4616
197,1456097452.73078441619873046875,1456097452.73205161094665527344,4664
198,1456097452.80364537239074707031,1456097452.80490732192993164062,4720
199,1456097452.87742662429809570312,1456097452.87871432304382324219,4784
200,1456097452.95175719261169433594,1456097452.95301890373229980469,4848
201,1456097453.02725887298583984375,1456097453.02851223945617675781,4920
202,1456097453.10362124443054199219,1456097453.10489392280578613281,4992
203,1456097453.18118619918823242188,1456097453.18246054649353027344,5072
204,1456097453.25970721244812011719,1456097453.26096510887145996094,5160
205,1456097453.33986687660217285156,1456097453.34114384651184082031,5248
206,1456097453.42074036598205566406,1456097453.42206430435180664062,5336
207,1456097453.50326776504516601562,1456097453.504543304443359375,5432
208,1456097453.58705687522888183594,1456097453.58831071853637695312,5528
209,1456097453.67223095893859863281,1456097453.67351484298706054688,5632
210,1456097453.75874352455139160156,1456097453.76000213623046875,5736
211,1456097453.84695267677307128906,1456097453.84819650650024414062,5848
212,1456097453.93673944473266601562,1456097453.9380092620849609375,5960
213,1456097454.02838444709777832031,1456097454.02962398529052734375,6072
214,1456097454.12091922760009765625,1456097454.12216734886169433594,6192
215,1456097454.2155323028564453125,1456097454.21697878837585449219,6312
216,1456097454.31177854537963867188,1456097454.31303668022155761719,6424
217,1456097454.40971255302429199219,1456097454.41103267669677734375,6544
218,1456097454.50939345359802246094,1456097454.510646820068359375,6664
219,1456097454.61097884178161621094,1456097454.61225152015686035156,6784
220,1456097454.71394109725952148438,1456097454.71521353721618652344,6904
221,1456097454.8186702728271484375,1456097454.81991434097290039062,7016
222,1456097454.92490601539611816406,1456097454.92649626731872558594,7128
223,1456097455.033435821533203125,1456097455.03467464447021484375,7240
224,1456097455.14269542694091796875,1456097455.14395689964294433594,7344
225,1456097455.25363278388977050781,1456097455.25488710403442382812,7440
226,1456097455.36626458168029785156,1456097455.36751723289489746094,7528
227,1456097455.47982883453369140625,1456097455.48108601570129394531,7608
228,1456097455.59478974342346191406,1456097455.59623742103576660156,7680
229,1456097455.71077990531921386719,1456097455.71205472946166992188,7744
230,1456097455.82747983932495117188,1456097455.82873225212097167969,7800
231,1456097455.94504761695861816406,1456097455.94583630561828613281,7840
232,1456097456.06311750411987304688,1456097456.0643672943115234375,7872
233,1456097456.18176603317260742188,1456097456.18301248550415039062,7888
234,1456097456.30061650276184082031,1456097456.30199527740478515625,7888
235,1456097456.41955733299255371094,1456097456.42080903053283691406,7888
236,1456097456.53852748870849609375,1456097456.53994631767272949219,7864
237,1456097456.657047271728515625,1456097456.65830445289611816406,7832
238,1456097456.7748870849609375,1456097456.77635526657104492188,7792
239,1456097456.89238524436950683594,1456097456.89366769790649414062,7736
240,1456097457.00909662246704101562,1456097457.01049089431762695312,7672
241,1456097457.12508296966552734375,1456097457.12650799751281738281,7600
242,1456097457.23978090286254882812,1456097457.24105167388916015625,7512
243,1456097457.35343098640441894531,1456097457.35466098785400390625,7424
244,1456097457.46529150009155273438,1456097457.46673727035522460938,7320
245,1456097457.5761356353759765625,1456097457.57738232612609863281,7216
246,1456097457.68528246879577636719,1456097457.686702728271484375,7104
247,1456097457.79307436943054199219,1456097457.794345855712890625,6992
248,1456097457.89902591705322265625,1456097457.9002704620361328125,6872
249,1456097458.00357079505920410156,1456097458.00501704216003417969,6752
250,1456097458.10623431205749511719,1456097458.10750079154968261719,6632
251,1456097458.207256317138671875,1456097458.20851945877075195312,6512
252,1456097458.30628371238708496094,1456097458.30753993988037109375,6392
253,1456097458.4036273956298828125,1456097458.40487647056579589844,6264
254,1456097458.49930262565612792969,1456097458.5005512237548828125,6144
255,1456097458.5931644439697265625,1456097458.59442090988159179688,6032
256,1456097458.68556737899780273438,1456097458.68858790397644042969,5912
257,1456097458.77650976181030273438,1456097458.77788710594177246094,5800
258,1456097458.86521792411804199219,1456097458.86676144599914550781,5688
259,1456097458.95265507698059082031,1456097458.95393991470336914062,5584
260,1456097459.03863501548767089844,1456097459.03991103172302246094,5480
261,1456097459.12305021286010742188,1456097459.12432050704956054688,5384
262,1456097459.20634484291076660156,1456097459.20760369300842285156,5288
263,1456097459.28782010078430175781,1456097459.28905463218688964844,5192
264,1456097459.36819720268249511719,1456097459.36943960189819335938,5112
265,1456097459.44756221771240234375,1456097459.44884037971496582031,5024
266,1456097459.5253353118896484375,1456097459.52676081657409667969,4952
267,1456097459.60228109359741210938,1456097459.6036777496337890625,4880
268,1456097459.67814207077026367188,1456097459.6794605255126953125,4808
269,1456097459.75367331504821777344,1456097459.75492548942565917969,4744
270,1456097459.82706665992736816406,1456097459.828319549560546875,4688
271,1456097459.90018296241760253906,1456097459.901447296142578125,4632
272,1456097459.97231650352478027344,1456097459.97356700897216796875,4576
273,1456097460.04402279853820800781,1456097460.04529309272766113281,4528
274,1456097460.11464381217956542969,1456097460.11607217788696289062,4488
275,1456097460.18510794639587402344,1456097460.18654322624206542969,4448
276,1456097460.25473713874816894531,1456097460.25643253326416015625,4416
