id, time (s), size (bits)
0,1456097435.00109100341796875,1456097435.002353668212890625,4928
1,1456097435.11074924468994140625,1456097435.11173677444458007812,5040
2,1456097435.18838834762573242188,1456097435.18937849998474121094,5120
3,1456097435.26730895042419433594,1456097435.26840639114379882812,5208
4,1456097435.34850835800170898438,1456097435.3507061004638671875,5296
5,1456097435.42991709709167480469,1456097435.43085741996765136719,5392
6,1456097435.51302409172058105469,1456097435.51396632194519042969,5488
7,1456097435.59762549400329589844,1456097435.59886050224304199219,5584
8,1456097435.68347668647766113281,1456097435.68447971343994140625,5688
9,1456097435.77062368392944335938,1456097435.77166724205017089844,5800
10,1456097435.86002421379089355469,1456097435.86098313331604003906,5912
11,1456097435.95078945159912109375,1456097435.95173883438110351562,6024
12,1456097436.04245662689208984375,1456097436.04339241981506347656,6136
13,1456097436.13656330108642578125,1456097436.1375026702880859375,6256
14,1456097436.231960296630859375,1456097436.23292112350463867188,6376
15,1456097436.32923412322998046875,1456097436.33017969131469726562,6496
16,1456097436.42830896377563476562,1456097436.42950701713562011719,6616
17,1456097436.52899336814880371094,1456097436.52993440628051757812,6736
18,1456097436.63135552406311035156,1456097436.63231372833251953125,6856
19,1456097436.73593306541442871094,1456097436.73689198493957519531,6968
20,1456097436.8409862518310546875,1456097436.84192514419555664062,7080
21,1456097436.94844079017639160156,1456097436.94943475723266601562,7192
22,1456097437.05723738670349121094,1456097437.05833506584167480469,7296
23,1456097437.16790676116943359375,1456097437.168888092041015625,7400
24,1456097437.27963972091674804688,1456097437.28065085411071777344,7488
25,1456097437.39271450042724609375,1456097437.39375233650207519531,7576
26,1456097437.50718069076538085938,1456097437.50796389579772949219,7648
27,1456097437.62276530265808105469,1456097437.62373113632202148438,7720
28,1456097437.739227294921875,1456097437.74017095565795898438,7776
29,1456097437.85624170303344726562,1456097437.8571910858154296875,7824
30,1456097437.97417020797729492188,1456097437.97510743141174316406,7856
31,1456097438.09260416030883789062,1456097438.09354257583618164062,7880
32,1456097438.21133279800415039062,1456097438.21242547035217285156,7888
33,1456097438.33018636703491210938,1456097438.33112764358520507812,7888
34,1456097438.44910311698913574219,1456097438.45014619827270507812,7872
35,1456097438.56768131256103515625,1456097438.56879496574401855469,7848
36,1456097438.6859722137451171875,1456097438.68696641921997070312,7808
37,1456097438.80367755889892578125,1456097438.80462479591369628906,7760
38,1456097438.92075610160827636719,1456097438.92170929908752441406,7704
39,1456097439.03693079948425292969,1456097439.0379810333251953125,7632
40,1456097439.15214705467224121094,1456097439.15314555168151855469,7552
41,1456097439.26623678207397460938,1456097439.26718735694885253906,7464
42,1456097439.37934112548828125,1456097439.38030457496643066406,7368
43,1456097439.49046421051025390625,1456097439.49164748191833496094,7264
44,1456097439.60029911994934082031,1456097439.60124945640563964844,7152
45,1456097439.70876812934875488281,1456097439.70971846580505371094,7040
46,1456097439.81540179252624511719,1456097439.81634616851806640625,6928
47,1456097439.9206295013427734375,1456097439.92156147956848144531,6808
48,1456097440.02417278289794921875,1456097440.02513957023620605469,6688
49,1456097440.12592673301696777344,1456097440.12691164016723632812,6560
50,1456097440.22562074661254882812,1456097440.22656536102294921875,6440
51,1456097440.32384276390075683594,1456097440.32479596138000488281,6320
52,1456097440.42058658599853515625,1456097440.42164206504821777344,6200
53,1456097440.51511621475219726562,1456097440.51606106758117675781,6080
54,1456097440.60881185531616210938,1456097440.60975956916809082031,5960
55,1456097440.69939947128295898438,1456097440.70035505294799804688,5848
56,1456097440.78962302207946777344,1456097440.7905597686767578125,5736
57,1456097440.87711644172668457031,1456097440.87816786766052246094,5632
58,1456097440.96372890472412109375,1456097440.96466994285583496094,5528
59,1456097441.04949402809143066406,1456097441.05045151710510253906,5424
60,1456097441.13284969329833984375,1456097441.13380694389343261719,5328
61,1456097441.21522784233093261719,1456097441.21628737449645996094,5232
62,1456097441.29630422592163085938,1456097441.29735803604125976562,5144
63,1456097441.37570452690124511719,1456097441.37666535377502441406,5064
64,1456097441.45531463623046875,1456097441.45662665367126464844,4984
65,1456097441.53177118301391601562,1456097441.53272867202758789062,4912
66,1456097441.6097126007080078125,1456097441.61065077781677246094,4840
67,1456097441.68487048149108886719,1456097441.68580937385559082031,4768
68,1456097441.76049184799194335938,1456097441.7614459991455078125,4712
69,1456097441.8342494964599609375,1456097441.8352069854736328125,4648
70,1456097441.908481597900390625,1456097441.90953826904296875,4600
71,1456097441.98062443733215332031,1456097441.98154425621032714844,4552
72,1456097442.05145549774169921875,1456097442.05239081382751464844,4504
73,1456097442.122776031494140625,1456097442.12371158599853515625,4464
74,1456097442.19260334968566894531,1456097442.19354343414306640625,4432
75,1456097442.26277518272399902344,1456097442.26374030113220214844,4400
76,1456097442.33170199394226074219,1456097442.33264780044555664062,4368
77,1456097442.40151882171630859375,1456097442.40256905555725097656,4344
78,1456097442.46970582008361816406,1456097442.47064948081970214844,4328
79,1456097442.5390300750732421875,1456097442.5400409698486328125,4312
80,1456097442.60553741455078125,1456097442.606475830078125,4304
81,1456097442.67344903945922851562,1456097442.67438745498657226562,4296
82,1456097442.74101305007934570312,1456097442.74194693565368652344,4296
83,1456097442.80872035026550292969,1456097442.80967497825622558594,4296
84,1456097442.87597799301147460938,1456097442.87690615653991699219,4296
85,1456097442.94324421882629394531,1456097442.94419455528259277344,4304
86,1456097443.01126980781555175781,1456097443.01220703125,4320
87,1456097443.0791034698486328125,1456097443.08004808425903320312,4336
88,1456097443.14803552627563476562,1456097443.14905834197998046875,4360
89,1456097443.21555447578430175781,1456097443.21651816368103027344,4384
90,1456097443.28445649147033691406,1456097443.28542041778564453125,4416
91,1456097443.35349035263061523438,1456097443.35442852973937988281,4448
92,1456097443.42327547073364257812,1456097443.4242382049560546875,4488
93,1456097443.49338197708129882812,1456097443.49431633949279785156,4528
94,1456097443.56432437896728515625,1456097443.56532025337219238281,4568
95,1456097443.63590312004089355469,1456097443.63683629035949707031,4624
96,1456097443.70820569992065429688,1456097443.70913672447204589844,4672
97,1456097443.78084635734558105469,1456097443.78179812431335449219,4736
98,1456097443.85471343994140625,1456097443.85564565658569335938,4800
99,1456097443.92958021163940429688,1456097443.9305553436279296875,4864
100,1456097444.00503635406494140625,1456097444.00598406791687011719,4936
101,1456097444.08169412612915039062,1456097444.08264446258544921875,5008
102,1456097444.15935254096984863281,1456097444.16036391258239746094,5088
103,1456097444.23842620849609375,1456097444.2393779754638671875,5176
104,1456097444.31855893135070800781,1456097444.31923508644104003906,5264
105,1456097444.39971232414245605469,1456097444.40063834190368652344,5352
106,1456097444.48255252838134765625,1456097444.4835357666015625,5448
107,1456097444.56675887107849121094,1456097444.56771183013916015625,5552
108,1456097444.65180492401123046875,1456097444.65274071693420410156,5648
109,1456097444.73888230323791503906,1456097444.73985266685485839844,5760
110,1456097444.82726764678955078125,1456097444.82837462425231933594,5864
111,1456097444.91720175743103027344,1456097444.91831040382385253906,5984
112,1456097445.00901055335998535156,1456097445.00995898246765136719,6096
113,1456097445.10216426849365234375,1456097445.10311388969421386719,6216
114,1456097445.19709801673889160156,1456097445.19816136360168457031,6328
115,1456097445.29380559921264648438,1456097445.29484844207763671875,6448
116,1456097445.39193582534790039062,1456097445.39286780357360839844,6568
117,1456097445.49194622039794921875,1456097445.492885589599609375,6688
118,1456097445.59367728233337402344,1456097445.59462285041809082031,6808
119,1456097445.69730639457702636719,1456097445.698528289794921875,6928
120,1456097445.80208277702331542969,1456097445.80302453041076660156,7040
121,1456097445.90902876853942871094,1456097445.90997099876403808594,7152
122,1456097446.01739716529846191406,1456097446.01796627044677734375,7256
123,1456097446.12708902359008789062,1456097446.12814688682556152344,7360
124,1456097446.2385425567626953125,1456097446.2395076751708984375,7456
125,1456097446.35110425949096679688,1456097446.35205364227294921875,7544
126,1456097446.46507048606872558594,1456097446.466068267822265625,7624
127,1456097446.58012700080871582031,1456097446.58108782768249511719,7696
128,1456097446.6963653564453125,1456097446.69798111915588378906,7752
129,1456097446.81328463554382324219,1456097446.81426572799682617188,7808
130,1456097446.93088650703430175781,1456097446.93183922767639160156,7848
131,1456097447.04919314384460449219,1456097447.05014967918395996094,7872
132,1456097447.16793751716613769531,1456097447.16894078254699707031,7888
133,1456097447.28676104545593261719,1456097447.28770732879638671875,7888
134,1456097447.405513763427734375,1456097447.40645670890808105469,7880
135,1456097447.52425742149353027344,1456097447.52524256706237792969,7864
136,1456097447.64278078079223632812,1456097447.643733978271484375,7824
137,1456097447.76066803932189941406,1456097447.76169729232788085938,7784
138,1456097447.87826180458068847656,1456097447.87921667098999023438,7728
139,1456097447.99473166465759277344,1456097447.99569821357727050781,7656
140,1456097448.11016631126403808594,1456097448.11112356185913085938,7584
141,1456097448.22491502761840820312,1456097448.22585749626159667969,7496
142,1456097448.33836531639099121094,1456097448.33932781219482421875,7400
143,1456097448.45017671585083007812,1456097448.45114850997924804688,7304
144,1456097448.56030440330505371094,1456097448.56133341789245605469,7200
145,1456097448.669437408447265625,1456097448.6703777313232421875,7088
146,1456097448.77679705619812011719,1456097448.77775645256042480469,6968
147,1456097448.88250708580017089844,1456097448.88344168663024902344,6856
148,1456097448.98709511756896972656,1456097448.98814034461975097656,6728
149,1456097449.0892181396484375,1456097449.09019613265991210938,6608
150,1456097449.18947815895080566406,1456097449.19042253494262695312,6488
151,1456097449.28861641883850097656,1456097449.2895755767822265625,6368
152,1456097449.38556456565856933594,1456097449.38651537895202636719,6240
153,1456097449.48087620735168457031,1456097449.48182535171508789062,6120
154,1456097449.57454323768615722656,1456097449.57558417320251464844,6008
155,1456097449.66647052764892578125,1456097449.66742753982543945312,5888
156,1456097449.75674867630004882812,1456097449.75770282745361328125,5776
157,1456097449.84551954269409179688,1456097449.846477508544921875,5672
158,1456097449.93244767189025878906,1456097449.93338942527770996094,5560
159,1456097450.01832294464111328125,1456097450.01929974555969238281,5464
160,1456097450.10273671150207519531,1456097450.10369014739990234375,5360
161,1456097450.18499040603637695312,1456097450.185924530029296875,5272
162,1456097450.26659440994262695312,1456097450.26753568649291992188,5176
163,1456097450.34685969352722167969,1456097450.34794831275939941406,5096
164,1456097450.425846099853515625,1456097450.42678976058959960938,5016
165,1456097450.50358510017395019531,1456097450.50454068183898925781,4936
166,1456097450.5804653167724609375,1456097450.58142948150634765625,4864
167,1456097450.65591073036193847656,1456097450.65686249732971191406,4800
168,1456097450.73125457763671875,1456097450.73222422599792480469,4736
169,1456097450.80451798439025878906,1456097450.80546331405639648438,4672
170,1456097450.8775787353515625,1456097450.87804079055786132812,4616
171,1456097450.95008921623229980469,1456097450.95105195045471191406,4568
172,1456097451.02104592323303222656,1456097451.02199673652648925781,4520
173,1456097451.09220004081726074219,1456097451.09315967559814453125,4480
174,1456097451.16204142570495605469,1456097451.16299414634704589844,4440
175,1456097451.23196125030517578125,1456097451.23291063308715820312,4408
176,1456097451.30067110061645507812,1456097451.30159878730773925781,4384
177,1456097451.37030720710754394531,1456097451.37125110626220703125,4360
178,1456097451.43902707099914550781,1456097451.44003343582153320312,4336
179,1456097451.50750136375427246094,1456097451.50862836837768554688,4320
180,1456097451.57431197166442871094,1456097451.57526135444641113281,4304
181,1456097451.64265799522399902344,1456097451.64359712600708007812,4296
182,1456097451.7105770111083984375,1456097451.71162915229797363281,4296
183,1456097451.7776737213134765625,1456097451.77875661849975585938,4296
184,1456097451.84563183784484863281,1456097451.84658956527709960938,4296
185,1456097451.9123077392578125,1456097451.91333484649658203125,4304
186,1456097451.98043799400329589844,1456097451.98147463798522949219,4312
187,1456097452.04835152626037597656,1456097452.04930663108825683594,4328
188,1456097452.11616349220275878906,1456097452.11712336540222167969,4352
189,1456097452.18390798568725585938,1456097452.18485665321350097656,4376
190,1456097452.25273585319519042969,1456097452.2536792755126953125,4400
191,1456097452.32153558731079101562,1456097452.32247257232666015625,4432
192,1456097452.391323089599609375,1456097452.39226770401000976562,4464
193,1456097452.4609127044677734375,1456097452.46184444427490234375,4504
194,1456097452.53159236907958984375,1456097452.53253722190856933594,4552
195,1456097452.60295987129211425781,1456097452.60391116142272949219,4600
196,1456097452.67486095428466796875,1456097452.67580389976501464844,4648
197,1456097452.74749779701232910156,1456097452.74861669540405273438,4704
198,1456097452.82084012031555175781,1456097452.82177090644836425781,4768
199,1456097452.89523291587829589844,1456097452.89619493484497070312,4832
200,1456097452.97001409530639648438,1456097452.9709415435791015625,4904
201,1456097453.04629540443420410156,1456097453.04724168777465820312,4976
202,1456097453.1236400604248046875,1456097453.12458753585815429688,5056
203,1456097453.201995849609375,1456097453.20293378829956054688,5136
204,1456097453.28148984909057617188,1456097453.282421112060546875,5224
205,1456097453.36239266395568847656,1456097453.36334180831909179688,5312
206,1456097453.44457077980041503906,1456097453.44551801681518554688,5408
207,1456097453.528072357177734375,1456097453.52903628349304199219,5504
208,1456097453.61247110366821289062,1456097453.61348009109497070312,5608
209,1456097453.69905042648315429688,1456097453.7000141143798828125,5712
210,1456097453.78672051429748535156,1456097453.78767490386962890625,5816
211,1456097453.87605309486389160156,1456097453.87699365615844726562,5928
212,1456097453.96683096885681152344,1456097453.96789216995239257812,6040
213,1456097454.05933785438537597656,1456097454.06028318405151367188,6160
214,1456097454.15375781059265136719,1456097454.154693603515625,6280
215,1456097454.24946761131286621094,1456097454.25041294097900390625,6392
216,1456097454.34707951545715332031,1456097454.34797692298889160156,6512
217,1456097454.44609975814819335938,1456097454.44715332984924316406,6632
218,1456097454.54703402519226074219,1456097454.54820752143859863281,6752
219,1456097454.64991354942321777344,1456097454.650875091552734375,6872
220,1456097454.75416994094848632812,1456097454.75511455535888671875,6992
221,1456097454.85985445976257324219,1456097454.86079668998718261719,7104
222,1456097454.96758008003234863281,1456097454.96875739097595214844,7208
223,1456097455.07673931121826171875,1456097455.07768321037292480469,7312
224,1456097455.187473297119140625,1456097455.18854045867919921875,7416
225,1456097455.29952359199523925781,1456097455.30047726631164550781,7504
226,1456097455.41288089752197265625,1456097455.41383695602416992188,7584
227,1456097455.52775359153747558594,1456097455.52887105941772460938,7664
228,1456097455.64314699172973632812,1456097455.64409661293029785156,7728
229,1456097455.75980281829833984375,1456097455.7607784271240234375,7784
230,1456097455.87697935104370117188,1456097455.87802934646606445312,7832
231,1456097455.99504303932189941406,1456097455.99615025520324707031,7864
232,1456097456.11348676681518554688,1456097456.11443185806274414062,7880
233,1456097456.23223662376403808594,1456097456.23317575454711914062,7888
234,1456097456.35108327865600585938,1456097456.35202670097351074219,7888
235,1456097456.46994948387145996094,1456097456.47089147567749023438,7872
236,1456097456.58873271942138671875,1456097456.58976197242736816406,7848
237,1456097456.70689797401428222656,1456097456.70793247222900390625,7808
238,1456097456.82457900047302246094,1456097456.82551741600036621094,7752
239,1456097456.94156360626220703125,1456097456.94251990318298339844,7688
240,1456097457.05769228935241699219,1456097457.05911564826965332031,7616
241,1456097457.17264509201049804688,1456097457.17358684539794921875,7536
242,1456097457.28637146949768066406,1456097457.28732466697692871094,7448
243,1456097457.39919829368591308594,1456097457.40015816688537597656,7352
244,1456097457.51019287109375,1456097457.511165618896484375,7248
245,1456097457.61981272697448730469,1456097457.62076354026794433594,7136
246,1456097457.72806406021118164062,1456097457.72902894020080566406,7024
247,1456097457.83443093299865722656,1456097457.83536553382873535156,6904
248,1456097457.93929433822631835938,1456097457.94024968147277832031,6784
249,1456097458.04245734214782714844,1456097458.04354810714721679688,6664
250,1456097458.14388179779052734375,1456097458.14485096931457519531,6544
251,1456097458.24339580535888671875,1456097458.24433684349060058594,6424
252,1456097458.34134507179260253906,1456097458.34228348731994628906,6304
253,1456097458.43763184547424316406,1456097458.43872618675231933594,6176
254,1456097458.53223109245300292969,1456097458.53317737579345703125,6064
255,1456097458.62476420402526855469,1456097458.62581133842468261719,5944
256,1456097458.71604418754577636719,1456097458.71824479103088378906,5832
257,1456097458.80534529685974121094,1456097458.80629825592041015625,5720
258,1456097458.89316821098327636719,1456097458.89430212974548339844,5608
259,1456097458.97956418991088867188,1456097458.98052501678466796875,5512
260,1456097459.06460285186767578125,1456097459.06559920310974121094,5408
261,1456097459.14814591407775878906,1456097459.14911651611328125,5312
262,1456097459.22989821434020996094,1456097459.2308406829833984375,5224
263,1456097459.31075692176818847656,1456097459.31170964241027832031,5136
264,1456097459.39006280899047851562,1456097459.39099049568176269531,5048
265,1456097459.46870326995849609375,1456097459.47074460983276367188,4968
266,1456097459.54575300216674804688,1456097459.54672479629516601562,4896
267,1456097459.62160348892211914062,1456097459.62264657020568847656,4824
268,1456097459.6969318389892578125,1456097459.69800138473510742188,4760
269,1456097459.77119517326354980469,1456097459.77215933799743652344,4704
270,1456097459.84439015388488769531,1456097459.84534883499145507812,4640
271,1456097459.91736268997192382812,1456097459.91851186752319335938,4592
272,1456097459.98874378204345703125,1456097459.98969721794128417969,4544
273,1456097460.06016373634338378906,1456097460.06112265586853027344,4496
274,1456097460.13047623634338378906,1456097460.13140797615051269531,4464
275,1456097460.20073294639587402344,1456097460.20168566703796386719,4424
276,1456097460.27050924301147460938,1456097460.27163338661193847656,4392
