id, time (s), size (bits)
0,1456097435.011501312255859375,1456097435.01271200180053710938,4944
1,1456097435.11853432655334472656,1456097435.11957764625549316406,5048
2,1456097435.1967220306396484375,1456097435.19770288467407226562,5128
3,1456097435.27540373802185058594,1456097435.27644681930541992188,5216
4,1456097435.3565616607666015625,1456097435.35766720771789550781,5304
5,1456097435.43811392784118652344,1456097435.43905019760131835938,5400
6,1456097435.52169513702392578125,1456097435.52270078659057617188,5496
7,1456097435.60627794265747070312,1456097435.60734701156616210938,5600
8,1456097435.69228863716125488281,1456097435.69329619407653808594,5704
9,1456097435.779857635498046875,1456097435.78081631660461425781,5808
10,1456097435.86904478073120117188,1456097435.86998653411865234375,5920
11,1456097435.96055817604064941406,1456097435.96157860755920410156,6040
12,1456097436.05224394798278808594,1456097436.053253173828125,6152
13,1456097436.14620161056518554688,1456097436.14713931083679199219,6272
14,1456097436.24204468727111816406,1456097436.24311876296997070312,6392
15,1456097436.33942556381225585938,1456097436.34036540985107421875,6512
16,1456097436.43856739997863769531,1456097436.43969750404357910156,6632
17,1456097436.53954577445983886719,1456097436.54050183296203613281,6752
18,1456097436.64228796958923339844,1456097436.64331126213073730469,6864
19,1456097436.74644064903259277344,1456097436.74741125106811523438,6984
20,1456097436.85236835479736328125,1456097436.85339951515197753906,7096
21,1456097436.95983290672302246094,1456097436.96076750755310058594,7208
22,1456097437.06893301010131835938,1456097437.06986260414123535156,7312
23,1456097437.17966604232788085938,1456097437.18060898780822753906,7408
24,1456097437.29166078567504882812,1456097437.29259800910949707031,7496
25,1456097437.40486097335815429688,1456097437.40589451789855957031,7584
26,1456097437.51951265335083007812,1456097437.52044439315795898438,7656
27,1456097437.63489437103271484375,1456097437.63584375381469726562,7728
28,1456097437.7516632080078125,1456097437.75276923179626464844,7784
29,1456097437.8692035675048828125,1456097437.87015295028686523438,7824
30,1456097437.98687529563903808594,1456097437.987823486328125,7864
31,1456097438.10534906387329101562,1456097438.10628414154052734375,7880
32,1456097438.22401356697082519531,1456097438.22516751289367675781,7888
33,1456097438.34303879737854003906,1456097438.34398865699768066406,7888
34,1456097438.46189570426940917969,1456097438.46302270889282226562,7872
35,1456097438.58044505119323730469,1456097438.58140230178833007812,7848
36,1456097438.69863605499267578125,1456097438.699581146240234375,7808
37,1456097438.81641745567321777344,1456097438.81735086441040039062,7760
38,1456097438.93356847763061523438,1456097438.93451547622680664062,7696
39,1456097439.04954624176025390625,1456097439.05051255226135253906,7624
40,1456097439.16461539268493652344,1456097439.16554331779479980469,7544
41,1456097439.27866101264953613281,1456097439.27968716621398925781,7456
42,1456097439.391582489013671875,1456097439.39254283905029296875,7352
43,1456097439.50272488594055175781,1456097439.50380301475524902344,7256
44,1456097439.61232614517211914062,1456097439.61333775520324707031,7144
45,1456097439.72049188613891601562,1456097439.72154498100280761719,7032
46,1456097439.82705545425415039062,1456097439.82799315452575683594,6912
47,1456097439.93212795257568359375,1456097439.93318319320678710938,6792
48,1456097440.03542375564575195312,1456097440.0363750457763671875,6672
49,1456097440.13688921928405761719,1456097440.13789105415344238281,6552
50,1456097440.23655056953430175781,1456097440.23748731613159179688,6424
51,1456097440.33448529243469238281,1456097440.33543372154235839844,6304
52,1456097440.43072295188903808594,1456097440.43193030357360839844,6184
53,1456097440.52535724639892578125,1456097440.52636122703552246094,6064
54,1456097440.617977142333984375,1456097440.61893582344055175781,5952
55,1456097440.70929718017578125,1456097440.71024751663208007812,5840
56,1456097440.79876160621643066406,1456097440.79971981048583984375,5728
57,1456097440.88688158988952636719,1456097440.88783955574035644531,5616
58,1456097440.97330689430236816406,1456097440.97424745559692382812,5512
59,1456097441.05821323394775390625,1456097441.05925083160400390625,5416
60,1456097441.1418972015380859375,1456097441.14298486709594726562,5320
61,1456097441.22401189804077148438,1456097441.22506833076477050781,5224
62,1456097441.30520892143249511719,1456097441.3061542510986328125,5136
63,1456097441.3843288421630859375,1456097441.38529133796691894531,5056
64,1456097441.46474981307983398438,1456097441.46601319313049316406,4976
65,1456097441.54103970527648925781,1456097441.54215669631958007812,4904
66,1456097441.617275238037109375,1456097441.61819386482238769531,4832
67,1456097441.69273042678833007812,1456097441.69366669654846191406,4760
68,1456097441.76818823814392089844,1456097441.769222259521484375,4704
69,1456097441.84244108200073242188,1456097441.84338831901550292969,4648
70,1456097441.91667580604553222656,1456097441.91775465011596679688,4592
71,1456097441.98849034309387207031,1456097441.98941707611083984375,4544
72,1456097442.0594310760498046875,1456097442.06038522720336914062,4496
73,1456097442.13031864166259765625,1456097442.13132929801940917969,4456
74,1456097442.20039224624633789062,1456097442.20138216018676757812,4424
75,1456097442.270542144775390625,1456097442.27161884307861328125,4392
76,1456097442.33952188491821289062,1456097442.34046387672424316406,4368
77,1456097442.40951657295227050781,1456097442.41047763824462890625,4344
78,1456097442.47750377655029296875,1456097442.47844409942626953125,4328
79,1456097442.54769158363342285156,1456097442.54868197441101074219,4312
80,1456097442.61460709571838378906,1456097442.61554718017578125,4304
81,1456097442.68217921257019042969,1456097442.683231353759765625,4296
82,1456097442.74956560134887695312,1456097442.75051069259643554688,4296
83,1456097442.81734299659729003906,1456097442.81829237937927246094,4296
84,1456097442.88499402999877929688,1456097442.88624215126037597656,4296
85,1456097442.95235705375671386719,1456097442.95344281196594238281,4312
86,1456097443.02010941505432128906,1456097443.02104067802429199219,4320
87,1456097443.08853507041931152344,1456097443.08955359458923339844,4344
88,1456097443.15618491172790527344,1456097443.15716052055358886719,4360
89,1456097443.22444796562194824219,1456097443.22543025016784667969,4392
90,1456097443.29375386238098144531,1456097443.29469847679138183594,4416
91,1456097443.3627529144287109375,1456097443.3637104034423828125,4448
92,1456097443.43235325813293457031,1456097443.43327498435974121094,4488
93,1456097443.50273966789245605469,1456097443.50367426872253417969,4528
94,1456097443.57369279861450195312,1456097443.57471728324890136719,4576
95,1456097443.64502310752868652344,1456097443.64597797393798828125,4632
96,1456097443.71738076210021972656,1456097443.71834111213684082031,4680
97,1456097443.79069614410400390625,1456097443.79189300537109375,4744
98,1456097443.86457610130310058594,1456097443.86551403999328613281,4808
99,1456097443.93922376632690429688,1456097443.94016933441162109375,4872
100,1456097444.01497054100036621094,1456097444.01591539382934570312,4944
101,1456097444.09185242652893066406,1456097444.09290099143981933594,5024
102,1456097444.16971063613891601562,1456097444.17065906524658203125,5104
103,1456097444.2489109039306640625,1456097444.24986481666564941406,5184
104,1456097444.32905626296997070312,1456097444.33000278472900390625,5272
105,1456097444.41057944297790527344,1456097444.41164755821228027344,5368
106,1456097444.49364614486694335938,1456097444.49473500251770019531,5464
107,1456097444.57773160934448242188,1456097444.57867717742919921875,5560
108,1456097444.66340088844299316406,1456097444.66434884071350097656,5664
109,1456097444.75030064582824707031,1456097444.75136971473693847656,5776
110,1456097444.83897852897644042969,1456097444.83992886543273925781,5880
111,1456097444.92914319038391113281,1456097444.93008327484130859375,5992
112,1456097445.02105975151062011719,1456097445.02218556404113769531,6112
113,1456097445.11443781852722167969,1456097445.11537861824035644531,6224
114,1456097445.20950055122375488281,1456097445.21044921875,6344
115,1456097445.30643463134765625,1456097445.30748295783996582031,6464
116,1456097445.40486741065979003906,1456097445.40582752227783203125,6584
117,1456097445.50507426261901855469,1456097445.50600862503051757812,6704
118,1456097445.60699605941772460938,1456097445.60794615745544433594,6824
119,1456097445.7107410430908203125,1456097445.71189427375793457031,6944
120,1456097445.81596088409423828125,1456097445.81690144538879394531,7056
121,1456097445.92311120033264160156,1456097445.92405939102172851562,7168
122,1456097446.03179955482482910156,1456097446.03275299072265625,7272
123,1456097446.1417522430419921875,1456097446.14270639419555664062,7376
124,1456097446.2532901763916015625,1456097446.25423312187194824219,7464
125,1456097446.36590886116027832031,1456097446.36684918403625488281,7552
126,1456097446.4799785614013671875,1456097446.48092436790466308594,7632
127,1456097446.59519362449645996094,1456097446.59614419937133789062,7704
128,1456097446.71154832839965820312,1456097446.71307921409606933594,7760
129,1456097446.82850360870361328125,1456097446.82946801185607910156,7808
130,1456097446.94624257087707519531,1456097446.94719767570495605469,7848
131,1456097447.06447386741638183594,1456097447.0654201507568359375,7872
132,1456097447.18318939208984375,1456097447.18414258956909179688,7888
133,1456097447.30194115638732910156,1456097447.3040981292724609375,7888
134,1456097447.42088174819946289062,1456097447.42198109626770019531,7880
135,1456097447.53973388671875,1456097447.54069685935974121094,7856
136,1456097447.65807771682739257812,1456097447.65903735160827636719,7824
137,1456097447.77593731880187988281,1456097447.77688336372375488281,7776
138,1456097447.89326071739196777344,1456097447.894298553466796875,7720
139,1456097448.00959086418151855469,1456097448.01055359840393066406,7648
140,1456097448.12497758865356445312,1456097448.12591981887817382812,7568
141,1456097448.2395172119140625,1456097448.24046111106872558594,7488
142,1456097448.35266923904418945312,1456097448.35361719131469726562,7392
143,1456097448.46427512168884277344,1456097448.46523714065551757812,7288
144,1456097448.57444214820861816406,1456097448.57553911209106445312,7184
145,1456097448.68364238739013671875,1456097448.68457818031311035156,7072
146,1456097448.79058122634887695312,1456097448.79168200492858886719,6952
147,1456097448.89600825309753417969,1456097448.89705586433410644531,6840
148,1456097448.99993085861206054688,1456097449.00086808204650878906,6712
149,1456097449.10209035873413085938,1456097449.10305762290954589844,6592
150,1456097449.2025089263916015625,1456097449.20346379280090332031,6472
151,1456097449.30112338066101074219,1456097449.30224633216857910156,6352
152,1456097449.39791083335876464844,1456097449.398952484130859375,6224
153,1456097449.49306130409240722656,1456097449.49400639533996582031,6112
154,1456097449.58644819259643554688,1456097449.58740019798278808594,5992
155,1456097449.67854928970336914062,1456097449.67947983741760253906,5872
156,1456097449.76824331283569335938,1456097449.76926970481872558594,5760
157,1456097449.85667920112609863281,1456097449.85761141777038574219,5656
158,1456097449.9436473846435546875,1456097449.94460034370422363281,5552
159,1456097450.02915143966674804688,1456097450.03012180328369140625,5448
160,1456097450.11374449729919433594,1456097450.11466431617736816406,5352
161,1456097450.19587063789367675781,1456097450.19683909416198730469,5256
162,1456097450.27701473236083984375,1456097450.27796483039855957031,5168
163,1456097450.35703063011169433594,1456097450.3579730987548828125,5080
164,1456097450.43570661544799804688,1456097450.4366607666015625,5000
165,1456097450.51345682144165039062,1456097450.51450514793395996094,4928
166,1456097450.58993482589721679688,1456097450.59087324142456054688,4856
167,1456097450.66544604301452636719,1456097450.66638207435607910156,4784
168,1456097450.739955902099609375,1456097450.74089574813842773438,4728
169,1456097450.81395030021667480469,1456097450.81497812271118164062,4664
170,1456097450.88661670684814453125,1456097450.88755702972412109375,4616
171,1456097450.95868992805480957031,1456097450.95964717864990234375,4560
172,1456097451.0298900604248046875,1456097451.03082990646362304688,4520
173,1456097451.10094308853149414062,1456097451.10213971138000488281,4480
174,1456097451.17092919349670410156,1456097451.17202019691467285156,4440
175,1456097451.24042654037475585938,1456097451.24139857292175292969,4408
176,1456097451.30950522422790527344,1456097451.31042695045471191406,4376
177,1456097451.3782901763916015625,1456097451.37922883033752441406,4352
178,1456097451.44708847999572753906,1456097451.44810318946838378906,4336
179,1456097451.51576280593872070312,1456097451.51676487922668457031,4320
180,1456097451.58297109603881835938,1456097451.58389711380004882812,4304
181,1456097451.65047979354858398438,1456097451.65161657333374023438,4296
182,1456097451.71843671798706054688,1456097451.71957421302795410156,4296
183,1456097451.78585457801818847656,1456097451.78678441047668457031,4296
184,1456097451.85339450836181640625,1456097451.85442304611206054688,4296
185,1456097451.92092108726501464844,1456097451.9221744537353515625,4304
186,1456097451.98840665817260742188,1456097451.98935461044311523438,4320
187,1456097452.05641412734985351562,1456097452.0574321746826171875,4336
188,1456097452.1245975494384765625,1456097452.12552142143249511719,4352
189,1456097452.19252848625183105469,1456097452.19347262382507324219,4376
190,1456097452.26153922080993652344,1456097452.26249289512634277344,4400
191,1456097452.33047628402709960938,1456097452.33154845237731933594,4432
192,1456097452.39997649192810058594,1456097452.400928497314453125,4472
193,1456097452.4696788787841796875,1456097452.47061276435852050781,4512
194,1456097452.54066061973571777344,1456097452.54176425933837890625,4560
195,1456097452.61177992820739746094,1456097452.61270928382873535156,4608
196,1456097452.68374037742614746094,1456097452.68473124504089355469,4656
197,1456097452.75640630722045898438,1456097452.75737690925598144531,4712
198,1456097452.82997775077819824219,1456097452.83092355728149414062,4776
199,1456097452.90457987785339355469,1456097452.90562105178833007812,4840
200,1456097452.97947096824645996094,1456097452.98039674758911132812,4912
201,1456097453.05582475662231445312,1456097453.05676984786987304688,4984
202,1456097453.13351345062255859375,1456097453.13447165489196777344,5064
203,1456097453.21193003654479980469,1456097453.21287751197814941406,5144
204,1456097453.29152750968933105469,1456097453.2924785614013671875,5232
205,1456097453.37263727188110351562,1456097453.37360024452209472656,5320
206,1456097453.45451331138610839844,1456097453.45545697212219238281,5416
207,1456097453.538135528564453125,1456097453.53908848762512207031,5512
208,1456097453.62298727035522460938,1456097453.62392067909240722656,5616
209,1456097453.70949721336364746094,1456097453.71053624153137207031,5720
210,1456097453.79723572731018066406,1456097453.79825568199157714844,5832
211,1456097453.88686466217041015625,1456097453.88792276382446289062,5944
212,1456097453.97796654701232910156,1456097453.9789218902587890625,6056
213,1456097454.07055425643920898438,1456097454.07166814804077148438,6176
214,1456097454.16529870033264160156,1456097454.166240692138671875,6288
215,1456097454.2609710693359375,1456097454.26207685470581054688,6408
216,1456097454.3586406707763671875,1456097454.35958433151245117188,6528
217,1456097454.45808243751525878906,1456097454.45901942253112792969,6648
218,1456097454.55923318862915039062,1456097454.56018614768981933594,6768
219,1456097454.66236519813537597656,1456097454.66334009170532226562,6888
220,1456097454.76705408096313476562,1456097454.76799702644348144531,7000
221,1456097454.87285351753234863281,1456097454.87379860877990722656,7112
222,1456097454.98051190376281738281,1456097454.98168015480041503906,7224
223,1456097455.09006547927856445312,1456097455.0911006927490234375,7328
224,1456097455.20076513290405273438,1456097455.2018489837646484375,7424
225,1456097455.31312131881713867188,1456097455.31406521797180175781,7512
226,1456097455.42671060562133789062,1456097455.42766427993774414062,7600
227,1456097455.54161810874938964844,1456097455.54256224632263183594,7672
228,1456097455.65705180168151855469,1456097455.65799403190612792969,7736
229,1456097455.7736358642578125,1456097455.77458906173706054688,7792
230,1456097455.89130711555480957031,1456097455.89228105545043945312,7832
231,1456097456.00926899909973144531,1456097456.01036858558654785156,7864
232,1456097456.12776589393615722656,1456097456.12871122360229492188,7888
233,1456097456.24659228324890136719,1456097456.24760770797729492188,7888
234,1456097456.36545991897583007812,1456097456.36638021469116210938,7888
235,1456097456.48430562019348144531,1456097456.48525857925415039062,7872
236,1456097456.60305643081665039062,1456097456.60398507118225097656,7840
237,1456097456.72116351127624511719,1456097456.722385406494140625,7800
238,1456097456.83897113800048828125,1456097456.83994626998901367188,7744
239,1456097456.95563483238220214844,1456097456.95659589767456054688,7680
240,1456097457.07166457176208496094,1456097457.07271146774291992188,7608
241,1456097457.18671178817749023438,1456097457.18766832351684570312,7528
242,1456097457.30007243156433105469,1456097457.3010272979736328125,7432
243,1456097457.41250467300415039062,1456097457.4135494232177734375,7336
244,1456097457.52338099479675292969,1456097457.52432489395141601562,7232
245,1456097457.63290166854858398438,1456097457.63385224342346191406,7120
246,1456097457.7406253814697265625,1456097457.74169945716857910156,7008
247,1456097457.84696078300476074219,1456097457.84789252281188964844,6888
248,1456097457.95179152488708496094,1456097457.95280432701110839844,6768
249,1456097458.05447983741760253906,1456097458.05559468269348144531,6648
250,1456097458.15557503700256347656,1456097458.1565189361572265625,6528
251,1456097458.25502109527587890625,1456097458.25603342056274414062,6408
252,1456097458.35281991958618164062,1456097458.35377073287963867188,6280
253,1456097458.44875216484069824219,1456097458.44969320297241210938,6160
254,1456097458.54298520088195800781,1456097458.54391336441040039062,6048
255,1456097458.63538527488708496094,1456097458.63634538650512695312,5928
256,1456097458.72861528396606445312,1456097458.73068118095397949219,5816
257,1456097458.816951751708984375,1456097458.81790614128112792969,5704
258,1456097458.90446758270263671875,1456097458.90552234649658203125,5600
259,1456097458.99065732955932617188,1456097458.99177265167236328125,5496
260,1456097459.07526397705078125,1456097459.07622647285461425781,5392
261,1456097459.15847635269165039062,1456097459.15941882133483886719,5296
262,1456097459.24036931991577148438,1456097459.241436004638671875,5208
263,1456097459.32091212272644042969,1456097459.32139849662780761719,5120
264,1456097459.40023565292358398438,1456097459.40143632888793945312,5040
265,1456097459.47842359542846679688,1456097459.47937798500061035156,4960
266,1456097459.5552997589111328125,1456097459.55625319480895996094,4888
267,1456097459.63149404525756835938,1456097459.63254809379577636719,4816
268,1456097459.7062664031982421875,1456097459.70722937583923339844,4752
269,1456097459.7804431915283203125,1456097459.78149390220642089844,4696
270,1456097459.85368824005126953125,1456097459.85464000701904296875,4640
271,1456097459.92607426643371582031,1456097459.92701411247253417969,4584
272,1456097459.99782872200012207031,1456097459.99878001213073730469,4536
273,1456097460.06873011589050292969,1456097460.06967091560363769531,4496
274,1456097460.13926362991333007812,1456097460.14022922515869140625,4456
275,1456097460.20895266532897949219,1456097460.20989155769348144531,4424
276,1456097460.27869009971618652344,1456097460.27973628044128417969,4392
