id, time (s), size (bits)
0,1455907872.76065397262573242188,1455907872.76095604896545410156,5656
1,1455907872.93731427192687988281,1455907872.93749070167541503906,5440
2,1455907873.03001356124877929688,1455907873.03018999099731445312,5336
3,1455907873.12174749374389648438,1455907873.121921539306640625,5232
4,1455907873.21352553367614746094,1455907873.21369695663452148438,5136
5,1455907873.30516481399536132812,1455907873.30533552169799804688,5040
6,1455907873.39642286300659179688,1455907873.39659190177917480469,4944
7,1455907873.48709249496459960938,1455907873.48742365837097167969,4864
8,1455907873.57895493507385253906,1455907873.57943177223205566406,4776
9,1455907873.67109966278076171875,1455907873.67129039764404296875,4704
10,1455907873.76239848136901855469,1455907873.76257443428039550781,4632
11,1455907873.85417866706848144531,1455907873.85434794425964355469,4568
12,1455907873.94575023651123046875,1455907873.94591784477233886719,4512
13,1455907874.03690958023071289062,1455907874.03708505630493164062,4456
14,1455907874.12764835357666015625,1455907874.12781810760498046875,4416
15,1455907874.21889376640319824219,1455907874.21912336349487304688,4376
16,1455907874.31096744537353515625,1455907874.31117320060729980469,4344
17,1455907874.4031887054443359375,1455907874.40335822105407714844,4320
18,1455907874.49497175216674804688,1455907874.49514651298522949219,4304
19,1455907874.58614277839660644531,1455907874.58638811111450195312,4296
20,1455907874.67735147476196289062,1455907874.67752361297607421875,4296
21,1455907874.76779294013977050781,1455907874.76802158355712890625,4296
22,1455907874.858753204345703125,1455907874.85892128944396972656,4312
23,1455907874.95047211647033691406,1455907874.95064282417297363281,4328
24,1455907875.04218649864196777344,1455907875.04236102104187011719,4360
25,1455907875.13345026969909667969,1455907875.13362145423889160156,4392
26,1455907875.224750518798828125,1455907875.22497129440307617188,4432
27,1455907875.31631302833557128906,1455907875.31648802757263183594,4480
28,1455907875.40686488151550292969,1455907875.40703296661376953125,4528
29,1455907875.497852325439453125,1455907875.49803686141967773438,4592
30,1455907875.58904433250427246094,1455907875.58921837806701660156,4656
31,1455907875.68030810356140136719,1455907875.68047666549682617188,4728
32,1455907875.77246642112731933594,1455907875.77264523506164550781,4808
33,1455907875.86419653892517089844,1455907875.86436939239501953125,4896
34,1455907875.95569014549255371094,1455907875.95586109161376953125,4984
35,1455907876.04635190963745117188,1455907876.04652452468872070312,5072
36,1455907876.13809919357299804688,1455907876.13827490806579589844,5168
37,1455907876.22984647750854492188,1455907876.23001956939697265625,5272
38,1455907876.32113695144653320312,1455907876.3213100433349609375,5376
39,1455907876.41273713111877441406,1455907876.41297960281372070312,5480
40,1455907876.50404524803161621094,1455907876.50427412986755371094,5592
41,1455907876.59546637535095214844,1455907876.59564208984375,5704
42,1455907876.68640923500061035156,1455907876.68658208847045898438,5816
43,1455907876.77793431282043457031,1455907876.77810549736022949219,5928
44,1455907876.86950254440307617188,1455907876.86966919898986816406,6040
45,1455907876.96095037460327148438,1455907876.96111941337585449219,6160
46,1455907877.05327486991882324219,1455907877.05344891548156738281,6272
47,1455907877.14512538909912109375,1455907877.14529299736022949219,6384
48,1455907877.23686170578002929688,1455907877.23703646659851074219,6504
49,1455907877.32794904708862304688,1455907877.32813739776611328125,6608
50,1455907877.41973829269409179688,1455907877.42006444931030273438,6720
51,1455907877.51118612289428710938,1455907877.51136040687561035156,6824
52,1455907877.60263514518737792969,1455907877.602809906005859375,6928
53,1455907877.69447278976440429688,1455907877.69464588165283203125,7032
54,1455907877.78642821311950683594,1455907877.78660130500793457031,7128
55,1455907877.87825155258178710938,1455907877.87841868400573730469,7216
56,1455907877.96953320503234863281,1455907877.969707489013671875,7304
57,1455907878.06199669837951660156,1455907878.06217098236083984375,7392
58,1455907878.15463948249816894531,1455907878.15480828285217285156,7464
59,1455907878.24743723869323730469,1455907878.24762487411499023438,7536
60,1455907878.33969712257385253906,1455907878.33987021446228027344,7608
61,1455907878.43121767044067382812,1455907878.43139052391052246094,7664
62,1455907878.52289938926696777344,1455907878.5232295989990234375,7720
63,1455907878.6144695281982421875,1455907878.61465382575988769531,7760
64,1455907878.70782208442687988281,1455907878.70799088478088378906,7800
65,1455907878.80076813697814941406,1455907878.80117082595825195312,7840
66,1455907878.89237380027770996094,1455907878.89254117012023925781,7864
67,1455907878.984455108642578125,1455907878.98467373847961425781,7880
68,1455907879.07581973075866699219,1455907879.07598662376403808594,7888
69,1455907879.1673717498779296875,1455907879.16755819320678710938,7888
70,1455907879.25890445709228515625,1455907879.25907588005065917969,7888
71,1455907879.35162973403930664062,1455907879.35186624526977539062,7872
72,1455907879.44403719902038574219,1455907879.44421339035034179688,7856
73,1455907879.53576874732971191406,1455907879.53594064712524414062,7832
74,1455907879.62787485122680664062,1455907879.6280517578125,7800
75,1455907879.71957063674926757812,1455907879.71974325180053710938,7752
76,1455907879.8112430572509765625,1455907879.81141567230224609375,7712
77,1455907879.90280866622924804688,1455907879.9031276702880859375,7656
78,1455907879.99453949928283691406,1455907879.99470853805541992188,7592
79,1455907880.08664250373840332031,1455907880.08682656288146972656,7528
80,1455907880.17879414558410644531,1455907880.17896032333374023438,7456
81,1455907880.27086663246154785156,1455907880.271038055419921875,7376
82,1455907880.36274814605712890625,1455907880.36291646957397460938,7296
83,1455907880.45474529266357421875,1455907880.45491743087768554688,7208
84,1455907880.54605579376220703125,1455907880.54622626304626464844,7112
85,1455907880.63775873184204101562,1455907880.63793301582336425781,7016
86,1455907880.72933864593505859375,1455907880.72951078414916992188,6912
87,1455907880.82087445259094238281,1455907880.82104158401489257812,6808
88,1455907880.91279363632202148438,1455907880.91296601295471191406,6704
89,1455907881.00500392913818359375,1455907881.00519871711730957031,6592
90,1455907881.09730863571166992188,1455907881.09747958183288574219,6480
91,1455907881.18863987922668457031,1455907881.18880963325500488281,6368
92,1455907881.28026485443115234375,1455907881.28043794631958007812,6256
93,1455907881.37191247940063476562,1455907881.37208223342895507812,6136
94,1455907881.46340417861938476562,1455907881.46364521980285644531,6024
95,1455907881.55531048774719238281,1455907881.55548572540283203125,5912
96,1455907881.6473407745361328125,1455907881.64751839637756347656,5792
97,1455907881.73885560035705566406,1455907881.73902583122253417969,5680
98,1455907881.82976317405700683594,1455907881.83009481430053710938,5568
99,1455907881.92158722877502441406,1455907881.92176795005798339844,5464
100,1455907882.013034820556640625,1455907882.01320695877075195312,5352
101,1455907882.10424184799194335938,1455907882.1044139862060546875,5256
102,1455907882.19590139389038085938,1455907882.19607591629028320312,5152
103,1455907882.28724312782287597656,1455907882.2874698638916015625,5056
104,1455907882.37863397598266601562,1455907882.37880039215087890625,4968
105,1455907882.46966314315795898438,1455907882.46983432769775390625,4880
106,1455907882.56119871139526367188,1455907882.56136870384216308594,4792
107,1455907882.65272355079650878906,1455907882.65288877487182617188,4720
108,1455907882.74390053749084472656,1455907882.74407863616943359375,4648
109,1455907882.83550906181335449219,1455907882.83569931983947753906,4584
110,1455907882.92685079574584960938,1455907882.92702174186706542969,4520
111,1455907883.01823711395263671875,1455907883.01840996742248535156,4472
112,1455907883.10907983779907226562,1455907883.10925269126892089844,4424
113,1455907883.20025491714477539062,1455907883.20042872428894042969,4384
114,1455907883.29159688949584960938,1455907883.29176974296569824219,4352
115,1455907883.38266634941101074219,1455907883.38284063339233398438,4328
116,1455907883.47421240806579589844,1455907883.47438979148864746094,4304
117,1455907883.56591582298278808594,1455907883.56616377830505371094,4296
118,1455907883.65811395645141601562,1455907883.65829038619995117188,4296
119,1455907883.74901318550109863281,1455907883.7492008209228515625,4296
120,1455907883.84050917625427246094,1455907883.84068441390991210938,4304
121,1455907883.9319515228271484375,1455907883.93212103843688964844,4328
122,1455907884.02268671989440917969,1455907884.0228557586669921875,4352
123,1455907884.11397838592529296875,1455907884.11415266990661621094,4384
124,1455907884.20506072044372558594,1455907884.20522975921630859375,4424
125,1455907884.29607605934143066406,1455907884.2962493896484375,4464
126,1455907884.38693976402282714844,1455907884.38717508316040039062,4520
127,1455907884.47857666015625,1455907884.47875833511352539062,4576
128,1455907884.57272434234619140625,1455907884.57289576530456542969,4648
129,1455907884.66585135459899902344,1455907884.66604661941528320312,4720
130,1455907884.75705957412719726562,1455907884.75722765922546386719,4792
131,1455907884.84832692146301269531,1455907884.84849905967712402344,4880
132,1455907884.93989038467407226562,1455907884.94006633758544921875,4968
133,1455907885.03073048591613769531,1455907885.03090429306030273438,5056
134,1455907885.1219768524169921875,1455907885.12215328216552734375,5152
135,1455907885.21358752250671386719,1455907885.21375942230224609375,5256
136,1455907885.3052845001220703125,1455907885.30545902252197265625,5352
137,1455907885.39726185798645019531,1455907885.39744210243225097656,5464
138,1455907885.48877096176147460938,1455907885.4889373779296875,5568
139,1455907885.58019852638244628906,1455907885.58045339584350585938,5680
140,1455907885.67121672630310058594,1455907885.67138266563415527344,5792
141,1455907885.76279139518737792969,1455907885.76296663284301757812,5912
142,1455907885.85453915596008300781,1455907885.85471391677856445312,6024
143,1455907885.946178436279296875,1455907885.94635367393493652344,6136
144,1455907886.03786373138427734375,1455907886.03818082809448242188,6256
145,1455907886.12960362434387207031,1455907886.12977743148803710938,6368
146,1455907886.22188353538513183594,1455907886.22206044197082519531,6480
147,1455907886.31309199333190917969,1455907886.31326389312744140625,6592
148,1455907886.40450000762939453125,1455907886.40473127365112304688,6704
149,1455907886.49655008316040039062,1455907886.49673318862915039062,6808
150,1455907886.58827090263366699219,1455907886.58844065666198730469,6912
151,1455907886.68024420738220214844,1455907886.6804180145263671875,7016
152,1455907886.77210950851440429688,1455907886.77228260040283203125,7112
153,1455907886.86414456367492675781,1455907886.86431860923767089844,7208
154,1455907886.95549535751342773438,1455907886.95566606521606445312,7296
155,1455907887.0473728179931640625,1455907887.04754376411437988281,7376
156,1455907887.1392269134521484375,1455907887.13939404487609863281,7456
157,1455907887.23113608360290527344,1455907887.23130750656127929688,7528
158,1455907887.32326436042785644531,1455907887.32343196868896484375,7592
159,1455907887.414989471435546875,1455907887.41517186164855957031,7656
160,1455907887.5068607330322265625,1455907887.50702762603759765625,7712
161,1455907887.59840059280395507812,1455907887.59857058525085449219,7752
162,1455907887.69095444679260253906,1455907887.69119048118591308594,7800
163,1455907887.78315782546997070312,1455907887.78332567214965820312,7832
164,1455907887.87468123435974121094,1455907887.87485241889953613281,7856
165,1455907887.96644473075866699219,1455907887.96661806106567382812,7872
166,1455907888.05810904502868652344,1455907888.05828237533569335938,7888
167,1455907888.15012335777282714844,1455907888.1502971649169921875,7888
168,1455907888.24139547348022460938,1455907888.24155974388122558594,7888
169,1455907888.33340978622436523438,1455907888.33360433578491210938,7880
170,1455907888.42565631866455078125,1455907888.42582249641418457031,7864
171,1455907888.51738047599792480469,1455907888.51754999160766601562,7832
172,1455907888.61008024215698242188,1455907888.61025333404541015625,7800
173,1455907888.70219588279724121094,1455907888.70236825942993164062,7768
174,1455907888.79424524307250976562,1455907888.79442453384399414062,7720
175,1455907888.88594937324523925781,1455907888.88612103462219238281,7664
176,1455907888.97806048393249511719,1455907888.97823023796081542969,7608
177,1455907889.06998848915100097656,1455907889.0701580047607421875,7536
178,1455907889.16150188446044921875,1455907889.16167354583740234375,7472
179,1455907889.25325083732604980469,1455907889.25343370437622070312,7392
180,1455907889.34525966644287109375,1455907889.34543013572692871094,7312
181,1455907889.4373722076416015625,1455907889.43754053115844726562,7224
182,1455907889.52868342399597167969,1455907889.52885270118713378906,7128
183,1455907889.62063145637512207031,1455907889.62079548835754394531,7032
184,1455907889.71247267723083496094,1455907889.71264028549194335938,6936
185,1455907889.80399346351623535156,1455907889.80416584014892578125,6832
186,1455907889.89564824104309082031,1455907889.8958187103271484375,6720
187,1455907889.98727440834045410156,1455907889.98744368553161621094,6616
188,1455907890.07875108718872070312,1455907890.07892155647277832031,6504
189,1455907890.16998362541198730469,1455907890.17022347450256347656,6392
190,1455907890.26159620285034179688,1455907890.26176333427429199219,6280
191,1455907890.3542613983154296875,1455907890.35444927215576171875,6160
192,1455907890.44600605964660644531,1455907890.44618082046508789062,6048
193,1455907890.53770494461059570312,1455907890.53787517547607421875,5928
194,1455907890.62900376319885253906,1455907890.62926030158996582031,5816
195,1455907890.72065138816833496094,1455907890.7208251953125,5704
196,1455907890.81151175498962402344,1455907890.8116817474365234375,5592
197,1455907890.90313482284545898438,1455907890.90330982208251953125,5480
198,1455907890.99517893791198730469,1455907890.9953517913818359375,5376
199,1455907891.08691740036010742188,1455907891.08709931373596191406,5272
200,1455907891.17903375625610351562,1455907891.17921042442321777344,5168
201,1455907891.27030730247497558594,1455907891.27048230171203613281,5072
202,1455907891.36171579360961914062,1455907891.36188030242919921875,4984
203,1455907891.45250749588012695312,1455907891.45267558097839355469,4896
204,1455907891.54374098777770996094,1455907891.54391217231750488281,4808
205,1455907891.63540482521057128906,1455907891.63557910919189453125,4736
206,1455907891.72647547721862792969,1455907891.72664737701416015625,4656
207,1455907891.81754779815673828125,1455907891.81772112846374511719,4592
208,1455907891.90912938117980957031,1455907891.90929961204528808594,4536
209,1455907892.001003265380859375,1455907892.0011920928955078125,4480
210,1455907892.09192252159118652344,1455907892.09215259552001953125,4432
211,1455907892.18325972557067871094,1455907892.18343377113342285156,4392
212,1455907892.27441000938415527344,1455907892.27464795112609863281,4360
213,1455907892.36579680442810058594,1455907892.36596751213073730469,4328
214,1455907892.45754575729370117188,1455907892.45771265029907226562,4312
215,1455907892.54871344566345214844,1455907892.54888916015625,4296
216,1455907892.64031243324279785156,1455907892.64048862457275390625,4296
217,1455907892.73113298416137695312,1455907892.73130464553833007812,4296
218,1455907892.82231354713439941406,1455907892.82249331474304199219,4304
219,1455907892.91415452957153320312,1455907892.91439890861511230469,4320
220,1455907893.00505614280700683594,1455907893.00522661209106445312,4344
221,1455907893.0965023040771484375,1455907893.09667658805847167969,4376
222,1455907893.187931060791015625,1455907893.18809986114501953125,4416
223,1455907893.27920079231262207031,1455907893.27937173843383789062,4456
224,1455907893.36979269981384277344,1455907893.36995863914489746094,4512
225,1455907893.46095943450927734375,1455907893.46113061904907226562,4568
226,1455907893.55193495750427246094,1455907893.55209875106811523438,4632
227,1455907893.64354658126831054688,1455907893.6437206268310546875,4704
228,1455907893.73530864715576171875,1455907893.73548173904418945312,4776
229,1455907893.82664775848388671875,1455907893.8268260955810546875,4856
230,1455907893.91829609870910644531,1455907893.91846609115600585938,4944
231,1455907894.00903534889221191406,1455907894.00920248031616210938,5032
232,1455907894.10062432289123535156,1455907894.10080122947692871094,5128
233,1455907894.19296693801879882812,1455907894.19314217567443847656,5232
234,1455907894.2848033905029296875,1455907894.28497147560119628906,5336
235,1455907894.37677741050720214844,1455907894.37702345848083496094,5440
236,1455907894.4679164886474609375,1455907894.46808457374572753906,5544
237,1455907894.55931520462036132812,1455907894.55962157249450683594,5656
238,1455907894.65014410018920898438,1455907894.65031790733337402344,5768
239,1455907894.7417621612548828125,1455907894.7419452667236328125,5880
240,1455907894.83320665359497070312,1455907894.83337879180908203125,6000
241,1455907894.92451333999633789062,1455907894.92468404769897460938,6112
242,1455907895.01618456840515136719,1455907895.01635503768920898438,6224
243,1455907895.1078433990478515625,1455907895.10800933837890625,6344
244,1455907895.19973778724670410156,1455907895.19990825653076171875,6456
245,1455907895.29091548919677734375,1455907895.29108834266662597656,6568
246,1455907895.38247537612915039062,1455907895.38264799118041992188,6680
247,1455907895.47452187538146972656,1455907895.47469568252563476562,6784
248,1455907895.5659389495849609375,1455907895.56611490249633789062,6888
249,1455907895.65772151947021484375,1455907895.65792179107666015625,6992
250,1455907895.74918699264526367188,1455907895.74936556816101074219,7088
251,1455907895.84082293510437011719,1455907895.84099698066711425781,7184
252,1455907895.93221044540405273438,1455907895.93237948417663574219,7272
253,1455907896.02418470382690429688,1455907896.02435350418090820312,7360
254,1455907896.11591625213623046875,1455907896.11607718467712402344,7432
255,1455907896.20779776573181152344,1455907896.20798444747924804688,7512
256,1455907896.30463480949401855469,1455907896.30480241775512695312,7584
257,1455907896.40011382102966308594,1455907896.40043735504150390625,7648
258,1455907896.49276614189147949219,1455907896.49292993545532226562,7704
259,1455907896.58402180671691894531,1455907896.58420681953430175781,7752
260,1455907896.67571568489074707031,1455907896.67589020729064941406,7792
261,1455907896.76772522926330566406,1455907896.76794552803039550781,7824
262,1455907896.86013340950012207031,1455907896.86030435562133789062,7856
263,1455907896.95245385169982910156,1455907896.95262289047241210938,7872
264,1455907897.04450297355651855469,1455907897.04467153549194335938,7888
265,1455907897.1363239288330078125,1455907897.1364917755126953125,7888
266,1455907897.22764921188354492188,1455907897.22782063484191894531,7888
267,1455907897.31971621513366699219,1455907897.3198871612548828125,7880
268,1455907897.41164660453796386719,1455907897.41181612014770507812,7864
269,1455907897.50346994400024414062,1455907897.50365614891052246094,7840
270,1455907897.59593152999877929688,1455907897.59619426727294921875,7808
271,1455907897.68872976303100585938,1455907897.68890690803527832031,7768
272,1455907897.78102803230285644531,1455907897.78128123283386230469,7728
273,1455907897.87224078178405761719,1455907897.87240648269653320312,7672
274,1455907897.96414518356323242188,1455907897.9643192291259765625,7616
275,1455907898.05587053298950195312,1455907898.05603814125061035156,7552
