id, time (s), size (bits)
0,1455907874.48314332962036132812,1455907874.48343968391418457031,6984
1,1455907874.65911030769348144531,1455907874.65928387641906738281,6784
2,1455907874.75135374069213867188,1455907874.75159335136413574219,6672
3,1455907874.84316182136535644531,1455907874.8433284759521484375,6560
4,1455907874.93498206138610839844,1455907874.93515038490295410156,6448
5,1455907875.02651119232177734375,1455907875.02671599388122558594,6336
6,1455907875.1176586151123046875,1455907875.11782026290893554688,6224
7,1455907875.20854449272155761719,1455907875.208713531494140625,6112
8,1455907875.30061554908752441406,1455907875.30078577995300292969,5992
9,1455907875.39234280586242675781,1455907875.39252209663391113281,5880
10,1455907875.48380708694458007812,1455907875.48397612571716308594,5768
11,1455907875.57557201385498046875,1455907875.57573914527893066406,5648
12,1455907875.66712999343872070312,1455907875.66729688644409179688,5544
13,1455907875.75822854042053222656,1455907875.75839400291442871094,5432
14,1455907875.84887838363647460938,1455907875.84905076026916503906,5328
15,1455907875.94026851654052734375,1455907875.94043207168579101562,5224
16,1455907876.03231477737426757812,1455907876.03248047828674316406,5128
17,1455907876.12470579147338867188,1455907876.12487483024597167969,5032
18,1455907876.21625518798828125,1455907876.21641993522644042969,4936
19,1455907876.30754828453063964844,1455907876.30772542953491210938,4856
20,1455907876.39855432510375976562,1455907876.39877963066101074219,4776
21,1455907876.48902201652526855469,1455907876.48924732208251953125,4696
22,1455907876.58017969131469726562,1455907876.58041739463806152344,4632
23,1455907876.67182326316833496094,1455907876.67198777198791503906,4568
24,1455907876.76355123519897460938,1455907876.76372075080871582031,4504
25,1455907876.85469198226928710938,1455907876.85485935211181640625,4456
26,1455907876.94616484642028808594,1455907876.94632840156555175781,4408
27,1455907877.03751468658447265625,1455907877.03768634796142578125,4376
28,1455907877.12805867195129394531,1455907877.12822699546813964844,4344
29,1455907877.21925449371337890625,1455907877.21942806243896484375,4320
30,1455907877.31024026870727539062,1455907877.31040453910827636719,4304
31,1455907877.40174746513366699219,1455907877.40191483497619628906,4296
32,1455907877.49388289451599121094,1455907877.49404263496398925781,4296
33,1455907877.58557963371276855469,1455907877.5857486724853515625,4296
34,1455907877.67695784568786621094,1455907877.67712426185607910156,4312
35,1455907877.76761674880981445312,1455907877.76777887344360351562,4328
36,1455907877.85953235626220703125,1455907877.85975408554077148438,4360
37,1455907877.95103335380554199219,1455907877.95119595527648925781,4392
38,1455907878.04256319999694824219,1455907878.042881011962890625,4432
39,1455907878.13398194313049316406,1455907878.13415622711181640625,4480
40,1455907878.22544574737548828125,1455907878.22560739517211914062,4536
41,1455907878.31693911552429199219,1455907878.31710481643676757812,4600
42,1455907878.40766143798828125,1455907878.40782046318054199219,4664
43,1455907878.49930691719055175781,1455907878.49947214126586914062,4736
44,1455907878.59094882011413574219,1455907878.59111952781677246094,4816
45,1455907878.68242812156677246094,1455907878.68259263038635253906,4896
46,1455907878.77463245391845703125,1455907878.77479910850524902344,4984
47,1455907878.86660242080688476562,1455907878.86676836013793945312,5080
48,1455907878.95810079574584960938,1455907878.95826578140258789062,5176
49,1455907879.04928183555603027344,1455907879.04946422576904296875,5280
50,1455907879.14114713668823242188,1455907879.14130568504333496094,5384
51,1455907879.23241734504699707031,1455907879.23257899284362792969,5488
52,1455907879.32408094406127929688,1455907879.32424616813659667969,5600
53,1455907879.41574192047119140625,1455907879.41590666770935058594,5712
54,1455907879.50794315338134765625,1455907879.50817227363586425781,5824
55,1455907879.59958767890930175781,1455907879.59975171089172363281,5936
56,1455907879.69086718559265136719,1455907879.69102883338928222656,6056
57,1455907879.78374743461608886719,1455907879.78391098976135253906,6168
58,1455907879.87598109245300292969,1455907879.87615489959716796875,6288
59,1455907879.96908211708068847656,1455907879.96925950050354003906,6400
60,1455907880.06103515625,1455907880.06120038032531738281,6512
61,1455907880.15258646011352539062,1455907880.15280461311340332031,6624
62,1455907880.24420881271362304688,1455907880.24437355995178222656,6736
63,1455907880.3357982635498046875,1455907880.33597636222839355469,6840
64,1455907880.42966580390930175781,1455907880.42983341217041015625,6944
65,1455907880.52225279808044433594,1455907880.52241849899291992188,7048
66,1455907880.61392736434936523438,1455907880.61409258842468261719,7144
67,1455907880.70575833320617675781,1455907880.70592498779296875,7232
68,1455907880.79732108116149902344,1455907880.79748296737670898438,7320
69,1455907880.88883709907531738281,1455907880.88908267021179199219,7400
70,1455907880.98029780387878417969,1455907880.98046159744262695312,7480
71,1455907881.07328438758850097656,1455907881.07345128059387207031,7552
72,1455907881.16539359092712402344,1455907881.16556024551391601562,7616
73,1455907881.25730800628662109375,1455907881.25754117965698242188,7672
74,1455907881.34925866127014160156,1455907881.34956836700439453125,7728
75,1455907881.44107127189636230469,1455907881.44123363494873046875,7768
76,1455907881.53269243240356445312,1455907881.53285861015319824219,7808
77,1455907881.62420654296875,1455907881.62451863288879394531,7840
78,1455907881.71604251861572265625,1455907881.71621155738830566406,7864
79,1455907881.8080806732177734375,1455907881.80825924873352050781,7880
80,1455907881.90038061141967773438,1455907881.90054607391357421875,7888
81,1455907881.9922428131103515625,1455907881.99240040779113769531,7888
82,1455907882.0843296051025390625,1455907882.08448839187622070312,7888
83,1455907882.17619371414184570312,1455907882.17635345458984375,7872
84,1455907882.26739215850830078125,1455907882.26756048202514648438,7856
85,1455907882.35931181907653808594,1455907882.35948085784912109375,7824
86,1455907882.45071315765380859375,1455907882.45087742805480957031,7792
87,1455907882.54245996475219726562,1455907882.54262566566467285156,7752
88,1455907882.63427996635437011719,1455907882.63444924354553222656,7704
89,1455907882.72664523124694824219,1455907882.72691082954406738281,7648
90,1455907882.81872797012329101562,1455907882.81889224052429199219,7584
91,1455907882.90998697280883789062,1455907882.91014766693115234375,7520
92,1455907883.00176167488098144531,1455907883.00192523002624511719,7448
93,1455907883.09333539009094238281,1455907883.09350299835205078125,7368
94,1455907883.18494343757629394531,1455907883.18511080741882324219,7280
95,1455907883.27675485610961914062,1455907883.27691888809204101562,7192
96,1455907883.36879992485046386719,1455907883.36895918846130371094,7104
97,1455907883.46021962165832519531,1455907883.46046805381774902344,7008
98,1455907883.55115437507629394531,1455907883.5513153076171875,6904
99,1455907883.64318180084228515625,1455907883.64335942268371582031,6800
100,1455907883.73439621925354003906,1455907883.73455715179443359375,6696
101,1455907883.82573580741882324219,1455907883.82590532302856445312,6584
102,1455907883.91727209091186523438,1455907883.91743445396423339844,6472
103,1455907884.00871443748474121094,1455907884.00888013839721679688,6360
104,1455907884.10005068778991699219,1455907884.10021519660949707031,6248
105,1455907884.19104909896850585938,1455907884.19121670722961425781,6128
106,1455907884.28267049789428710938,1455907884.28284239768981933594,6016
107,1455907884.37405300140380859375,1455907884.3742160797119140625,5904
108,1455907884.46551060676574707031,1455907884.46567177772521972656,5784
109,1455907884.5570068359375,1455907884.55718874931335449219,5672
110,1455907884.64829921722412109375,1455907884.64846396446228027344,5560
111,1455907884.73969912528991699219,1455907884.73986649513244628906,5456
112,1455907884.83040452003479003906,1455907884.83056163787841796875,5352
113,1455907884.92172765731811523438,1455907884.92188978195190429688,5248
114,1455907885.01291346549987792969,1455907885.01307058334350585938,5144
115,1455907885.10417485237121582031,1455907885.10433626174926757812,5048
116,1455907885.19572091102600097656,1455907885.19588923454284667969,4960
117,1455907885.28760385513305664062,1455907885.28776955604553222656,4872
118,1455907885.37949490547180175781,1455907885.37965536117553710938,4792
119,1455907885.4703845977783203125,1455907885.47056722640991210938,4712
120,1455907885.56219339370727539062,1455907885.56242775917053222656,4640
121,1455907885.65323925018310546875,1455907885.65340256690979003906,4576
122,1455907885.74415302276611328125,1455907885.74431824684143066406,4520
123,1455907885.83534526824951171875,1455907885.83567500114440917969,4464
124,1455907885.92647337913513183594,1455907885.92663884162902832031,4424
125,1455907886.0174007415771484375,1455907886.01756429672241210938,4384
126,1455907886.10831165313720703125,1455907886.10847878456115722656,4352
127,1455907886.20017457008361816406,1455907886.20035958290100097656,4328
128,1455907886.29473638534545898438,1455907886.29490542411804199219,4304
129,1455907886.38740324974060058594,1455907886.38759589195251464844,4296
130,1455907886.47837042808532714844,1455907886.47853493690490722656,4296
131,1455907886.56989216804504394531,1455907886.57006216049194335938,4296
132,1455907886.66120553016662597656,1455907886.66137194633483886719,4304
133,1455907886.75203990936279296875,1455907886.75226807594299316406,4328
134,1455907886.84348154067993164062,1455907886.84364628791809082031,4352
135,1455907886.93496012687683105469,1455907886.93512320518493652344,4384
136,1455907887.02691626548767089844,1455907887.02708268165588378906,4424
137,1455907887.11865234375,1455907887.11881613731384277344,4472
138,1455907887.21018767356872558594,1455907887.21035408973693847656,4528
139,1455907887.30159616470336914062,1455907887.30179738998413085938,4584
140,1455907887.39253664016723632812,1455907887.39270043373107910156,4648
141,1455907887.48432970046997070312,1455907887.48449635505676269531,4720
142,1455907887.57588458061218261719,1455907887.57605099678039550781,4800
143,1455907887.66778159141540527344,1455907887.66809034347534179688,4880
144,1455907887.75924634933471679688,1455907887.75941014289855957031,4968
145,1455907887.85123991966247558594,1455907887.85140562057495117188,5064
146,1455907887.94327473640441894531,1455907887.94344115257263183594,5160
147,1455907888.03443622589111328125,1455907888.03460049629211425781,5264
148,1455907888.12604665756225585938,1455907888.1262111663818359375,5368
149,1455907888.21794819831848144531,1455907888.21812152862548828125,5472
150,1455907888.30982923507690429688,1455907888.30999279022216796875,5584
151,1455907888.40167927742004394531,1455907888.401844024658203125,5696
152,1455907888.49375844001770019531,1455907888.49392247200012207031,5808
153,1455907888.58556199073791503906,1455907888.58572912216186523438,5920
154,1455907888.67685627937316894531,1455907888.67702817916870117188,6032
155,1455907888.76896166801452636719,1455907888.76912689208984375,6152
156,1455907888.86090397834777832031,1455907888.86106729507446289062,6264
157,1455907888.95270013809204101562,1455907888.95286679267883300781,6384
158,1455907889.04466986656188964844,1455907889.04483556747436523438,6496
159,1455907889.13654088973999023438,1455907889.1367168426513671875,6608
160,1455907889.22828030586242675781,1455907889.22844004631042480469,6712
161,1455907889.31999230384826660156,1455907889.32015657424926757812,6824
162,1455907889.41275715827941894531,1455907889.41292881965637207031,6928
163,1455907889.50463151931762695312,1455907889.50494337081909179688,7024
164,1455907889.59633278846740722656,1455907889.59649610519409179688,7128
165,1455907889.68791961669921875,1455907889.68808245658874511719,7216
166,1455907889.77973198890686035156,1455907889.77989292144775390625,7304
167,1455907889.87167191505432128906,1455907889.872005462646484375,7384
168,1455907889.9627742767333984375,1455907889.96293854713439941406,7464
169,1455907890.05511140823364257812,1455907890.05529856681823730469,7536
170,1455907890.14714074134826660156,1455907890.1473026275634765625,7600
171,1455907890.23904466629028320312,1455907890.23921084403991699219,7664
172,1455907890.33161640167236328125,1455907890.33178114891052246094,7712
173,1455907890.4238338470458984375,1455907890.42400193214416503906,7760
174,1455907890.5159435272216796875,1455907890.51611232757568359375,7800
175,1455907890.60754632949829101562,1455907890.60778951644897460938,7832
176,1455907890.69976973533630371094,1455907890.69993281364440917969,7856
177,1455907890.79148340225219726562,1455907890.79165172576904296875,7880
178,1455907890.88313555717468261719,1455907890.88329529762268066406,7888
179,1455907890.97473216056823730469,1455907890.97497153282165527344,7888
180,1455907891.06695008277893066406,1455907891.06710934638977050781,7888
181,1455907891.15894556045532226562,1455907891.15911173820495605469,7880
182,1455907891.25014662742614746094,1455907891.25037264823913574219,7856
183,1455907891.34240961074829101562,1455907891.34257245063781738281,7832
184,1455907891.43398571014404296875,1455907891.43414711952209472656,7800
185,1455907891.52560091018676757812,1455907891.52582097053527832031,7760
186,1455907891.61718726158142089844,1455907891.61735749244689941406,7712
187,1455907891.70887136459350585938,1455907891.70903944969177246094,7656
188,1455907891.80022144317626953125,1455907891.80038666725158691406,7600
189,1455907891.89143109321594238281,1455907891.89161086082458496094,7536
190,1455907891.98343324661254882812,1455907891.9836025238037109375,7464
191,1455907892.07585501670837402344,1455907892.07603406906127929688,7384
192,1455907892.16760277748107910156,1455907892.16776490211486816406,7304
193,1455907892.25915098190307617188,1455907892.25931906700134277344,7216
194,1455907892.35073828697204589844,1455907892.35090780258178710938,7120
195,1455907892.44215655326843261719,1455907892.44232439994812011719,7024
196,1455907892.53296780586242675781,1455907892.53313541412353515625,6928
197,1455907892.62485074996948242188,1455907892.62502360343933105469,6824
198,1455907892.71666073799133300781,1455907892.71682786941528320312,6712
199,1455907892.80869126319885253906,1455907892.80907106399536132812,6608
200,1455907892.90050101280212402344,1455907892.90073156356811523438,6496
201,1455907892.99186396598815917969,1455907892.99203252792358398438,6376
202,1455907893.08311700820922851562,1455907893.08327889442443847656,6264
203,1455907893.17392706871032714844,1455907893.1741504669189453125,6152
204,1455907893.26532006263732910156,1455907893.26548099517822265625,6040
205,1455907893.35692095756530761719,1455907893.35708522796630859375,5920
206,1455907893.44801616668701171875,1455907893.44817876815795898438,5808
207,1455907893.53900432586669921875,1455907893.53916954994201660156,5696
208,1455907893.63076329231262207031,1455907893.63092923164367675781,5584
209,1455907893.72250843048095703125,1455907893.72269439697265625,5472
210,1455907893.81337404251098632812,1455907893.81354093551635742188,5368
211,1455907893.90498590469360351562,1455907893.90515255928039550781,5264
212,1455907893.99585938453674316406,1455907893.99602031707763671875,5168
213,1455907894.08740305900573730469,1455907894.08757281303405761719,5072
214,1455907894.17895030975341796875,1455907894.17911529541015625,4976
215,1455907894.27031588554382324219,1455907894.27050733566284179688,4888
216,1455907894.36200118064880371094,1455907894.36217331886291503906,4808
217,1455907894.45249009132385253906,1455907894.45265603065490722656,4728
218,1455907894.54402637481689453125,1455907894.54419374465942382812,4656
219,1455907894.63564300537109375,1455907894.635822296142578125,4592
220,1455907894.72660732269287109375,1455907894.72677493095397949219,4528
221,1455907894.81802344322204589844,1455907894.8181896209716796875,4480
222,1455907894.90943980216979980469,1455907894.90960693359375,4432
223,1455907895.00059413909912109375,1455907895.0007648468017578125,4392
224,1455907895.09116625785827636719,1455907895.09133267402648925781,4352
225,1455907895.18251347541809082031,1455907895.18268084526062011719,4328
226,1455907895.27330565452575683594,1455907895.27347493171691894531,4312
227,1455907895.36522197723388671875,1455907895.36538457870483398438,4296
228,1455907895.45670771598815917969,1455907895.45705509185791015625,4296
229,1455907895.5482234954833984375,1455907895.54840683937072753906,4296
230,1455907895.63973402976989746094,1455907895.63990163803100585938,4304
231,1455907895.73045325279235839844,1455907895.73062372207641601562,4320
232,1455907895.82245302200317382812,1455907895.82268166542053222656,4344
233,1455907895.91469120979309082031,1455907895.91486048698425292969,4376
234,1455907896.006561279296875,1455907896.00672292709350585938,4416
235,1455907896.09821867942810058594,1455907896.09837484359741210938,4464
236,1455907896.18956875801086425781,1455907896.18978905677795410156,4512
237,1455907896.28078889846801757812,1455907896.28095102310180664062,4568
238,1455907896.37160348892211914062,1455907896.37176465988159179688,4632
239,1455907896.46342229843139648438,1455907896.4635944366455078125,4704
240,1455907896.55468153953552246094,1455907896.55484843254089355469,4784
241,1455907896.64617705345153808594,1455907896.64633989334106445312,4864
242,1455907896.7376308441162109375,1455907896.73779940605163574219,4952
243,1455907896.8294963836669921875,1455907896.82966303825378417969,5040
244,1455907896.92122650146484375,1455907896.92139267921447753906,5136
245,1455907897.0123615264892578125,1455907897.01252627372741699219,5240
246,1455907897.10410642623901367188,1455907897.10427165031433105469,5336
247,1455907897.196033477783203125,1455907897.196193695068359375,5448
248,1455907897.28765225410461425781,1455907897.28781104087829589844,5552
249,1455907897.37927794456481933594,1455907897.37945771217346191406,5664
250,1455907897.47075819969177246094,1455907897.47092390060424804688,5776
251,1455907897.5624828338623046875,1455907897.56264781951904296875,5896
252,1455907897.65370440483093261719,1455907897.65386891365051269531,6008
253,1455907897.7459259033203125,1455907897.74609231948852539062,6120
254,1455907897.83744263648986816406,1455907897.83760738372802734375,6240
255,1455907897.92956399917602539062,1455907897.92974805831909179688,6352
256,1455907898.02735066413879394531,1455907898.02751469612121582031,6472
257,1455907898.12193799018859863281,1455907898.12210536003112792969,6592
258,1455907898.21425867080688476562,1455907898.21442317962646484375,6696
259,1455907898.30553603172302246094,1455907898.30570936203002929688,6808
260,1455907898.39736342430114746094,1455907898.39753365516662597656,6912
261,1455907898.48931407928466796875,1455907898.48947882652282714844,7008
262,1455907898.58187913894653320312,1455907898.58204245567321777344,7112
263,1455907898.67415714263916015625,1455907898.6743221282958984375,7200
264,1455907898.76626181602478027344,1455907898.76658940315246582031,7288
265,1455907898.85785675048828125,1455907898.8580169677734375,7376
266,1455907898.94920420646667480469,1455907898.94936966896057128906,7456
267,1455907899.04149889945983886719,1455907899.04166364669799804688,7528
268,1455907899.13326048851013183594,1455907899.13342213630676269531,7592
269,1455907899.22534728050231933594,1455907899.22552227973937988281,7656
270,1455907899.31768488883972167969,1455907899.31785607337951660156,7704
271,1455907899.41062331199645996094,1455907899.41078710556030273438,7752
272,1455907899.50266432762145996094,1455907899.50282883644104003906,7800
273,1455907899.59376049041748046875,1455907899.59392380714416503906,7832
274,1455907899.68590998649597167969,1455907899.68607807159423828125,7856
275,1455907899.77751994132995605469,1455907899.77774477005004882812,7872
