id, time (s), size (bits)
0,1455907873.37976217269897460938,1455907873.3799610137939453125,6152
1,1455907873.47422480583190917969,1455907873.47440600395202636719,5928
2,1455907873.56567525863647460938,1455907873.56585025787353515625,5816
3,1455907873.65760946273803710938,1455907873.6577816009521484375,5704
4,1455907873.74916720390319824219,1455907873.7493534088134765625,5592
5,1455907873.84078383445739746094,1455907873.84095406532287597656,5480
6,1455907873.93168663978576660156,1455907873.93186497688293457031,5376
7,1455907874.02265381813049316406,1455907874.0228290557861328125,5272
8,1455907874.1153411865234375,1455907874.11551666259765625,5168
9,1455907874.20650720596313476562,1455907874.2066974639892578125,5072
10,1455907874.29820275306701660156,1455907874.29841566085815429688,4984
11,1455907874.38997292518615722656,1455907874.390155792236328125,4896
12,1455907874.48135852813720703125,1455907874.48169183731079101562,4808
13,1455907874.5721797943115234375,1455907874.57236146926879882812,4728
14,1455907874.66298198699951171875,1455907874.66316318511962890625,4664
15,1455907874.75474023818969726562,1455907874.75491189956665039062,4592
16,1455907874.846652984619140625,1455907874.84682893753051757812,4536
17,1455907874.93928742408752441406,1455907874.93945860862731933594,4480
18,1455907875.03036403656005859375,1455907875.03054833412170410156,4432
19,1455907875.12182402610778808594,1455907875.12201023101806640625,4392
20,1455907875.21264576911926269531,1455907875.21282148361206054688,4352
21,1455907875.3029327392578125,1455907875.30315566062927246094,4328
22,1455907875.39450836181640625,1455907875.39468789100646972656,4312
23,1455907875.48612737655639648438,1455907875.48630809783935546875,4296
24,1455907875.5777378082275390625,1455907875.57791543006896972656,4296
25,1455907875.6687755584716796875,1455907875.66895508766174316406,4296
26,1455907875.76054072380065917969,1455907875.76072025299072265625,4304
27,1455907875.85153341293334960938,1455907875.85171532630920410156,4320
28,1455907875.94205522537231445312,1455907875.94223356246948242188,4344
29,1455907876.03351616859436035156,1455907876.0337734222412109375,4376
30,1455907876.12430787086486816406,1455907876.12448358535766601562,4416
31,1455907876.21620988845825195312,1455907876.21638321876525878906,4456
32,1455907876.30842709541320800781,1455907876.30861139297485351562,4512
33,1455907876.40014052391052246094,1455907876.40031456947326660156,4568
34,1455907876.49105334281921386719,1455907876.49123024940490722656,4632
35,1455907876.5816593170166015625,1455907876.58191370964050292969,4704
36,1455907876.67422270774841308594,1455907876.67447376251220703125,4776
37,1455907876.76509022712707519531,1455907876.76526880264282226562,4856
38,1455907876.85696578025817871094,1455907876.85714101791381835938,4944
39,1455907876.94815540313720703125,1455907876.94834804534912109375,5040
40,1455907877.03973126411437988281,1455907877.03990697860717773438,5136
41,1455907877.13100075721740722656,1455907877.13117885589599609375,5232
42,1455907877.22182250022888183594,1455907877.22200417518615722656,5336
43,1455907877.31370496749877929688,1455907877.31388616561889648438,5440
44,1455907877.405055999755859375,1455907877.40523219108581542969,5544
45,1455907877.49712419509887695312,1455907877.49729847908020019531,5656
46,1455907877.58882641792297363281,1455907877.58916592597961425781,5768
47,1455907877.68097066879272460938,1455907877.68115496635437011719,5888
48,1455907877.77227854728698730469,1455907877.77246141433715820312,6000
49,1455907877.86333727836608886719,1455907877.86353182792663574219,6112
50,1455907877.95559024810791015625,1455907877.9557590484619140625,6232
51,1455907878.04646039009094238281,1455907878.04663729667663574219,6344
52,1455907878.13855743408203125,1455907878.13873529434204101562,6456
53,1455907878.23006463050842285156,1455907878.2302417755126953125,6568
54,1455907878.32243657112121582031,1455907878.32260680198669433594,6680
55,1455907878.4139156341552734375,1455907878.41409707069396972656,6784
56,1455907878.50521111488342285156,1455907878.50538778305053710938,6888
57,1455907878.59853911399841308594,1455907878.59872078895568847656,6992
58,1455907878.69040656089782714844,1455907878.69078874588012695312,7096
59,1455907878.78356432914733886719,1455907878.78381943702697753906,7192
60,1455907878.87514328956604003906,1455907878.87532854080200195312,7280
61,1455907878.96693062782287597656,1455907878.96710658073425292969,7360
62,1455907879.05854368209838867188,1455907879.05871915817260742188,7440
63,1455907879.14997839927673339844,1455907879.15016937255859375,7512
64,1455907879.24490880966186523438,1455907879.24508166313171386719,7584
65,1455907879.33633971214294433594,1455907879.33658051490783691406,7648
66,1455907879.42845845222473144531,1455907879.428630828857421875,7704
67,1455907879.51991295814514160156,1455907879.52016377449035644531,7752
68,1455907879.61161279678344726562,1455907879.61187744140625,7792
69,1455907879.70310807228088378906,1455907879.70330309867858886719,7824
70,1455907879.7946224212646484375,1455907879.79495024681091308594,7856
71,1455907879.88810062408447265625,1455907879.88827729225158691406,7872
72,1455907879.97954225540161132812,1455907879.97971987724304199219,7888
73,1455907880.07178378105163574219,1455907880.07195687294006347656,7888
74,1455907880.16356945037841796875,1455907880.16374683380126953125,7888
75,1455907880.25533986091613769531,1455907880.25551724433898925781,7880
76,1455907880.34699249267578125,1455907880.34717655181884765625,7864
77,1455907880.43831157684326171875,1455907880.43848872184753417969,7840
78,1455907880.53053450584411621094,1455907880.53071427345275878906,7808
79,1455907880.62238550186157226562,1455907880.6225795745849609375,7768
80,1455907880.71489548683166503906,1455907880.7150745391845703125,7728
81,1455907880.80649256706237792969,1455907880.80667781829833984375,7672
82,1455907880.89880442619323730469,1455907880.89904260635375976562,7616
83,1455907880.99030804634094238281,1455907880.99048614501953125,7552
84,1455907881.08146357536315917969,1455907881.0816364288330078125,7480
85,1455907881.17375326156616210938,1455907881.17393350601196289062,7408
86,1455907881.26475238800048828125,1455907881.26493120193481445312,7328
87,1455907881.35701847076416015625,1455907881.3571949005126953125,7240
88,1455907881.44833421707153320312,1455907881.44851803779602050781,7144
89,1455907881.54139637947082519531,1455907881.54165959358215332031,7048
90,1455907881.63282656669616699219,1455907881.63301038742065429688,6952
91,1455907881.72408580780029296875,1455907881.72426652908325195312,6848
92,1455907881.81621718406677246094,1455907881.81639146804809570312,6744
93,1455907881.90738463401794433594,1455907881.90756320953369140625,6632
94,1455907881.99925661087036132812,1455907881.99943399429321289062,6520
95,1455907882.0911426544189453125,1455907882.09132719039916992188,6408
96,1455907882.18320298194885253906,1455907882.18337678909301757812,6296
97,1455907882.27431225776672363281,1455907882.27454876899719238281,6184
98,1455907882.36520504951477050781,1455907882.36537694931030273438,6064
99,1455907882.4576244354248046875,1455907882.45780682563781738281,5952
100,1455907882.54839444160461425781,1455907882.54857087135314941406,5840
101,1455907882.64011907577514648438,1455907882.64029455184936523438,5728
102,1455907882.73134136199951171875,1455907882.73152112960815429688,5616
103,1455907882.82293987274169921875,1455907882.82311582565307617188,5504
104,1455907882.9140625,1455907882.91423940658569335938,5400
105,1455907883.00503063201904296875,1455907883.005199432373046875,5296
106,1455907883.09689831733703613281,1455907883.09707188606262207031,5192
107,1455907883.18810796737670898438,1455907883.18828272819519042969,5096
108,1455907883.27989602088928222656,1455907883.28005957603454589844,5000
109,1455907883.37104630470275878906,1455907883.37124085426330566406,4912
110,1455907883.46262073516845703125,1455907883.46279668807983398438,4824
111,1455907883.55380082130432128906,1455907883.55398416519165039062,4744
112,1455907883.644275665283203125,1455907883.6444530487060546875,4672
113,1455907883.73610782623291015625,1455907883.73628211021423339844,4608
114,1455907883.82684326171875,1455907883.82701778411865234375,4544
115,1455907883.91834616661071777344,1455907883.91873049736022949219,4488
116,1455907884.00985860824584960938,1455907884.01003551483154296875,4440
117,1455907884.10224223136901855469,1455907884.10241389274597167969,4400
118,1455907884.19348287582397460938,1455907884.19387507438659667969,4360
119,1455907884.28441643714904785156,1455907884.28460669517517089844,4336
120,1455907884.37652444839477539062,1455907884.37670350074768066406,4312
121,1455907884.4670696258544921875,1455907884.46731710433959960938,4296
122,1455907884.55837941169738769531,1455907884.55855107307434082031,4296
123,1455907884.64940357208251953125,1455907884.64958596229553222656,4296
124,1455907884.74055361747741699219,1455907884.7407894134521484375,4304
125,1455907884.83150506019592285156,1455907884.83168387413024902344,4320
126,1455907884.92225766181945800781,1455907884.92264103889465332031,4336
127,1455907885.01473522186279296875,1455907885.01492977142333984375,4368
128,1455907885.10997605323791503906,1455907885.11014533042907714844,4408
129,1455907885.20157456398010253906,1455907885.20183110237121582031,4448
130,1455907885.29246759414672851562,1455907885.29264783859252929688,4504
131,1455907885.38423609733581542969,1455907885.38441491127014160156,4560
132,1455907885.47540140151977539062,1455907885.47558283805847167969,4624
133,1455907885.56598544120788574219,1455907885.56616353988647460938,4688
134,1455907885.65786457061767578125,1455907885.65804266929626464844,4768
135,1455907885.74899220466613769531,1455907885.74917387962341308594,4848
136,1455907885.84152722358703613281,1455907885.84170866012573242188,4928
137,1455907885.9327392578125,1455907885.93291997909545898438,5024
138,1455907886.02444338798522949219,1455907886.02476716041564941406,5112
139,1455907886.11578965187072753906,1455907886.11597847938537597656,5216
140,1455907886.20662951469421386719,1455907886.20680689811706542969,5312
141,1455907886.29883790016174316406,1455907886.29901862144470214844,5424
142,1455907886.38995122909545898438,1455907886.39013171195983886719,5528
143,1455907886.48221111297607421875,1455907886.48239445686340332031,5640
144,1455907886.57339239120483398438,1455907886.57357478141784667969,5752
145,1455907886.66589426994323730469,1455907886.66607785224914550781,5864
146,1455907886.75737667083740234375,1455907886.75756335258483886719,5984
147,1455907886.848438262939453125,1455907886.84861350059509277344,6096
148,1455907886.94047617912292480469,1455907886.94065380096435546875,6208
149,1455907887.03210377693176269531,1455907887.03229022026062011719,6328
150,1455907887.12425637245178222656,1455907887.12443280220031738281,6440
151,1455907887.21592593193054199219,1455907887.21610474586486816406,6552
152,1455907887.30824112892150878906,1455907887.30841469764709472656,6664
153,1455907887.3999462127685546875,1455907887.40027165412902832031,6768
154,1455907887.49098825454711914062,1455907887.49116015434265136719,6880
155,1455907887.58349704742431640625,1455907887.5836811065673828125,6976
156,1455907887.67498636245727539062,1455907887.67516422271728515625,7080
157,1455907887.76711225509643554688,1455907887.76728606224060058594,7168
158,1455907887.85892128944396972656,1455907887.85910010337829589844,7264
159,1455907887.95096111297607421875,1455907887.9511470794677734375,7344
160,1455907888.0425281524658203125,1455907888.04271173477172851562,7424
161,1455907888.13419175148010253906,1455907888.13437247276306152344,7504
162,1455907888.22743964195251464844,1455907888.22760820388793945312,7568
163,1455907888.31870770454406738281,1455907888.31893444061279296875,7632
164,1455907888.41053271293640136719,1455907888.41076898574829101562,7688
165,1455907888.50207853317260742188,1455907888.50246977806091308594,7736
166,1455907888.59409475326538085938,1455907888.59442996978759765625,7784
167,1455907888.68580532073974609375,1455907888.68604969978332519531,7816
168,1455907888.77686405181884765625,1455907888.77704167366027832031,7848
169,1455907888.86954188346862792969,1455907888.86980700492858886719,7872
170,1455907888.96105289459228515625,1455907888.96123242378234863281,7888
171,1455907889.05362820625305175781,1455907889.053798675537109375,7888
172,1455907889.14589548110961914062,1455907889.14608120918273925781,7888
173,1455907889.23817276954650878906,1455907889.23834967613220214844,7880
174,1455907889.33025383949279785156,1455907889.33043694496154785156,7864
175,1455907889.42179846763610839844,1455907889.42197775840759277344,7848
176,1455907889.51420640945434570312,1455907889.51437878608703613281,7816
177,1455907889.6055011749267578125,1455907889.60568451881408691406,7776
178,1455907889.69741773605346679688,1455907889.69759202003479003906,7736
179,1455907889.78888487815856933594,1455907889.78907895088195800781,7688
180,1455907889.8814067840576171875,1455907889.88158130645751953125,7624
181,1455907889.97303414344787597656,1455907889.97327709197998046875,7568
182,1455907890.06418776512145996094,1455907890.06435728073120117188,7496
183,1455907890.15680789947509765625,1455907890.156982421875,7424
184,1455907890.24795746803283691406,1455907890.24813723564147949219,7344
185,1455907890.33996796607971191406,1455907890.34014225006103515625,7256
186,1455907890.4313106536865234375,1455907890.43148922920227050781,7168
187,1455907890.52304315567016601562,1455907890.52321457862854003906,7072
188,1455907890.61430239677429199219,1455907890.61448359489440917969,6968
189,1455907890.70534682273864746094,1455907890.70574235916137695312,6872
190,1455907890.79801988601684570312,1455907890.79819798469543457031,6760
191,1455907890.88994002342224121094,1455907890.89013957977294921875,6656
192,1455907890.98187494277954101562,1455907890.98204946517944335938,6544
193,1455907891.07308602333068847656,1455907891.07326364517211914062,6432
194,1455907891.16498851776123046875,1455907891.16516208648681640625,6320
195,1455907891.25616955757141113281,1455907891.25641632080078125,6208
196,1455907891.34697651863098144531,1455907891.34715437889099121094,6088
197,1455907891.4395275115966796875,1455907891.43970274925231933594,5976
198,1455907891.53072762489318847656,1455907891.53089880943298339844,5856
199,1455907891.62326288223266601562,1455907891.6236724853515625,5744
200,1455907891.71440625190734863281,1455907891.71459197998046875,5632
201,1455907891.80606770515441894531,1455907891.806240081787109375,5520
202,1455907891.89704608917236328125,1455907891.89722585678100585938,5416
203,1455907891.98781991004943847656,1455907891.98799014091491699219,5312
204,1455907892.07964468002319335938,1455907892.07982230186462402344,5208
205,1455907892.17083120346069335938,1455907892.1710052490234375,5112
206,1455907892.26207709312438964844,1455907892.26231813430786132812,5016
207,1455907892.3530597686767578125,1455907892.35324192047119140625,4928
208,1455907892.44518184661865234375,1455907892.4453601837158203125,4840
209,1455907892.53657603263854980469,1455907892.53677773475646972656,4760
210,1455907892.62714362144470214844,1455907892.62731957435607910156,4688
211,1455907892.71901059150695800781,1455907892.71925115585327148438,4616
212,1455907892.80978083610534667969,1455907892.80995941162109375,4552
213,1455907892.90172314643859863281,1455907892.90189719200134277344,4496
214,1455907892.99295210838317871094,1455907892.99312925338745117188,4448
215,1455907893.08481431007385253906,1455907893.084991455078125,4408
216,1455907893.175952911376953125,1455907893.17613124847412109375,4368
217,1455907893.2663288116455078125,1455907893.26650857925415039062,4336
218,1455907893.35855412483215332031,1455907893.35873389244079589844,4320
219,1455907893.44941926002502441406,1455907893.44960927963256835938,4304
220,1455907893.54085898399353027344,1455907893.54103517532348632812,4296
221,1455907893.63207459449768066406,1455907893.63225340843200683594,4296
222,1455907893.72343993186950683594,1455907893.72361159324645996094,4296
223,1455907893.814548492431640625,1455907893.8147258758544921875,4312
224,1455907893.90503001213073730469,1455907893.90520381927490234375,4336
225,1455907893.99665546417236328125,1455907893.996826171875,4360
226,1455907894.08722352981567382812,1455907894.08740162849426269531,4400
227,1455907894.17965149879455566406,1455907894.17983269691467285156,4440
228,1455907894.27080488204956054688,1455907894.27098536491394042969,4488
229,1455907894.3624515533447265625,1455907894.36264252662658691406,4544
230,1455907894.4537220001220703125,1455907894.4538974761962890625,4608
231,1455907894.54439544677734375,1455907894.54457235336303710938,4672
232,1455907894.63732004165649414062,1455907894.6374969482421875,4744
233,1455907894.72862839698791503906,1455907894.72880697250366210938,4824
234,1455907894.82092189788818359375,1455907894.82108664512634277344,4912
235,1455907894.91214060783386230469,1455907894.912319183349609375,5000
236,1455907895.00368905067443847656,1455907895.00393843650817871094,5096
237,1455907895.09482145309448242188,1455907895.09500098228454589844,5192
238,1455907895.18545269966125488281,1455907895.18563199043273925781,5288
239,1455907895.27768421173095703125,1455907895.27793979644775390625,5400
240,1455907895.36867046356201171875,1455907895.36884617805480957031,5504
241,1455907895.46055150032043457031,1455907895.46072268486022949219,5616
242,1455907895.5516796112060546875,1455907895.55186247825622558594,5728
243,1455907895.64396405220031738281,1455907895.6441440582275390625,5840
244,1455907895.73530268669128417969,1455907895.73548078536987304688,5952
245,1455907895.82609891891479492188,1455907895.82627439498901367188,6064
246,1455907895.91863393783569335938,1455907895.91880702972412109375,6184
247,1455907896.00998616218566894531,1455907896.0101604461669921875,6296
248,1455907896.10176873207092285156,1455907896.10193800926208496094,6416
249,1455907896.19337344169616699219,1455907896.19356584548950195312,6528
250,1455907896.28500676155090332031,1455907896.28517580032348632812,6632
251,1455907896.37669968605041503906,1455907896.37688136100769042969,6744
252,1455907896.46766591072082519531,1455907896.46784210205078125,6848
253,1455907896.56050634384155273438,1455907896.56068491935729980469,6952
254,1455907896.65164589881896972656,1455907896.65182375907897949219,7056
255,1455907896.74392843246459960938,1455907896.74412012100219726562,7152
256,1455907896.84387159347534179688,1455907896.84405422210693359375,7248
257,1455907896.93661093711853027344,1455907896.93678998947143554688,7336
258,1455907897.02832102775573730469,1455907897.02850294113159179688,7416
259,1455907897.11952137947082519531,1455907897.1197757720947265625,7488
260,1455907897.2117099761962890625,1455907897.21188497543334960938,7560
261,1455907897.303508758544921875,1455907897.303684234619140625,7624
262,1455907897.39645218849182128906,1455907897.39662528038024902344,7680
263,1455907897.48848485946655273438,1455907897.48866820335388183594,7736
264,1455907897.58061265945434570312,1455907897.5807857513427734375,7776
265,1455907897.67194771766662597656,1455907897.67221760749816894531,7816
266,1455907897.76325178146362304688,1455907897.76342535018920898438,7840
267,1455907897.85584521293640136719,1455907897.85625195503234863281,7864
268,1455907897.94732260704040527344,1455907897.94749617576599121094,7880
269,1455907898.039890289306640625,1455907898.04007768630981445312,7888
270,1455907898.13177061080932617188,1455907898.13195323944091796875,7888
271,1455907898.22501444816589355469,1455907898.22525310516357421875,7888
272,1455907898.31670045852661132812,1455907898.31694197654724121094,7872
273,1455907898.40781807899475097656,1455907898.40807342529296875,7848
274,1455907898.50020670890808105469,1455907898.50038599967956542969,7824
275,1455907898.59162640571594238281,1455907898.59180498123168945312,7784
276,1455907898.6838226318359375,1455907898.68400549888610839844,7744
