id, time (s), size (bits)
0,1456014460.95343494415283203125,59512
1,1456014461.00246334075927734375,58872
2,1456014461.05291748046875,58224
3,1456014461.10249447822570800781,57600
4,1456014461.15283417701721191406,56976
5,1456014461.20232105255126953125,56368
6,1456014461.252780914306640625,55768
7,1456014461.30210542678833007812,55184
8,1456014461.35291242599487304688,54600
9,1456014461.40234088897705078125,54048
10,1456014461.45286035537719726562,53496
11,1456014461.50206995010375976562,52968
12,1456014461.55255222320556640625,52448
13,1456014461.60288739204406738281,51944
14,1456014461.65225696563720703125,51464
15,1456014461.70264911651611328125,50992
16,1456014461.75308108329772949219,50544
17,1456014461.80284166336059570312,50112
18,1456014461.85203886032104492188,49704
19,1456014461.90253090858459472656,49312
20,1456014461.95283842086791992188,48936
21,1456014462.00224184989929199219,48584
22,1456014462.05269074440002441406,48248
23,1456014462.10352420806884765625,47936
24,1456014462.15301609039306640625,47648
25,1456014462.202480316162109375,47384
26,1456014462.252201080322265625,47144
27,1456014462.30254054069519042969,46920
28,1456014462.35272812843322753906,46720
29,1456014462.40265297889709472656,46544
30,1456014462.45274138450622558594,46392
31,1456014462.50270509719848632812,46256
32,1456014462.55281901359558105469,46152
33,1456014462.60297465324401855469,46072
34,1456014462.65291523933410644531,46016
35,1456014462.70315265655517578125,45976
36,1456014462.75310802459716796875,45968
37,1456014462.80213475227355957031,45984
38,1456014462.8530406951904296875,46016
39,1456014462.90312361717224121094,46080
40,1456014462.95305538177490234375,46168
41,1456014463.00304651260375976562,46272
42,1456014463.05305957794189453125,46408
43,1456014463.1029415130615234375,46560
44,1456014463.15323662757873535156,46744
45,1456014463.20315837860107421875,46944
46,1456014463.25212788581848144531,47160
47,1456014463.30308961868286132812,47416
48,1456014463.35320711135864257812,47688
49,1456014463.40309786796569824219,47976
50,1456014463.45321583747863769531,48288
51,1456014463.50314545631408691406,48624
52,1456014463.55301785469055175781,48976
53,1456014463.60312294960021972656,49352
54,1456014463.65300679206848144531,49744
55,1456014463.70311117172241210938,50160
56,1456014463.75301027297973632812,50592
57,1456014463.80305242538452148438,51048
58,1456014463.85292720794677734375,51512
59,1456014463.90302371978759765625,52000
60,1456014463.95297169685363769531,52504
61,1456014464.00285434722900390625,53016
62,1456014464.05302929878234863281,53552
63,1456014464.10299587249755859375,54104
64,1456014464.15307259559631347656,54672
65,1456014464.20216870307922363281,55232
66,1456014464.25331640243530273438,55840
67,1456014464.30320954322814941406,56432
68,1456014464.35339069366455078125,57048
69,1456014464.40223574638366699219,57656
70,1456014464.45310091972351074219,58304
71,1456014464.50320935249328613281,58944
72,1456014464.5531635284423828125,59592
73,1456014464.60219573974609375,60240
74,1456014464.6531696319580078125,60912
75,1456014464.70328211784362792969,61584
76,1456014464.75320291519165039062,62256
77,1456014464.80334210395812988281,62936
78,1456014464.85218572616577148438,63600
79,1456014464.90307712554931640625,64296
80,1456014464.95323133468627929688,64984
81,1456014465.00313925743103027344,65672
82,1456014465.05213594436645507812,66344
83,1456014465.10305380821228027344,67040
84,1456014465.15325880050659179688,67728
85,1456014465.20318388938903808594,68408
86,1456014465.25333142280578613281,69088
87,1456014465.30224895477294921875,69744
88,1456014465.35322642326354980469,70424
89,1456014465.40227413177490234375,71080
90,1456014465.45317244529724121094,71744
91,1456014465.50216937065124511719,72376
92,1456014465.55303072929382324219,73032
93,1456014465.6032562255859375,73664
94,1456014465.65318417549133300781,74288
95,1456014465.70320653915405273438,74896
96,1456014465.75313115119934082031,75496
97,1456014465.80319952964782714844,76080
98,1456014465.85317683219909667969,76656
99,1456014465.90294504165649414062,77216
100,1456014465.9529266357421875,77760
101,1456014466.00272679328918457031,78296
102,1456014466.05291223526000976562,78816
103,1456014466.10281896591186523438,79312
104,1456014466.15288305282592773438,79800
105,1456014466.20280575752258300781,80264
106,1456014466.2526569366455078125,80712
107,1456014466.30267596244812011719,81144
108,1456014466.35250759124755859375,81552
109,1456014466.40253424644470214844,81944
110,1456014466.45224547386169433594,82320
111,1456014466.5033702850341796875,82680
112,1456014466.55275893211364746094,83008
113,1456014466.60335254669189453125,83320
114,1456014466.65276885032653808594,83608
115,1456014466.70327734947204589844,83872
116,1456014466.75281882286071777344,84112
117,1456014466.8032207489013671875,84336
118,1456014466.85255646705627441406,84536
119,1456014466.90281987190246582031,84712
120,1456014466.95331788063049316406,84872
121,1456014467.0026264190673828125,84992
122,1456014467.05321431159973144531,85104
123,1456014467.10243177413940429688,85184
124,1456014467.15267801284790039062,85240
125,1456014467.20322418212890625,85280
126,1456014467.25249910354614257812,85288
127,1456014467.30302929878234863281,85272
128,1456014467.35326910018920898438,85240
129,1456014467.40303969383239746094,85176
130,1456014467.45325756072998046875,85088
131,1456014467.502574920654296875,84984
132,1456014467.55285048484802246094,84848
133,1456014467.60301470756530761719,84696
134,1456014467.65228247642517089844,84520
135,1456014467.7025241851806640625,84320
136,1456014467.75303387641906738281,84088
137,1456014467.80322027206420898438,83840
138,1456014467.85246038436889648438,83576
139,1456014467.90267491340637207031,83280
140,1456014467.95303297042846679688,82968
141,1456014468.00319337844848632812,82632
142,1456014468.052516937255859375,82280
143,1456014468.10296201705932617188,81904
144,1456014468.15315151214599609375,81512
145,1456014468.20255756378173828125,81096
146,1456014468.2528209686279296875,80664
147,1456014468.30326557159423828125,80208
148,1456014468.35247588157653808594,79744
149,1456014468.40280771255493164062,79256
150,1456014468.45300078392028808594,78752
151,1456014468.50321197509765625,78232
152,1456014468.5525836944580078125,77704
153,1456014468.60275912284851074219,77152
154,1456014468.65216469764709472656,76600
155,1456014468.70225954055786132812,76024
156,1456014468.75259995460510253906,75432
157,1456014468.80273699760437011719,74824
158,1456014468.85305643081665039062,74208
159,1456014468.90328741073608398438,73584
160,1456014468.95250844955444335938,72960
161,1456014469.00286769866943359375,72320
162,1456014469.05330395698547363281,71664
163,1456014469.1027660369873046875,71008
164,1456014469.15294551849365234375,70344
165,1456014469.203289031982421875,69672
166,1456014469.25246143341064453125,69008
167,1456014469.30284285545349121094,68328
168,1456014469.35302519798278808594,67640
169,1456014469.40316867828369140625,66960
170,1456014469.452640533447265625,66280
171,1456014469.50285029411315917969,65592
172,1456014469.55320715904235839844,64896
173,1456014469.602291107177734375,64224
174,1456014469.65276432037353515625,63536
175,1456014469.70297932624816894531,62856
176,1456014469.75335907936096191406,62168
177,1456014469.80250716209411621094,61504
178,1456014469.85267806053161621094,60840
179,1456014469.90318560600280761719,60168
180,1456014469.95235872268676757812,59520
181,1456014470.00277733802795410156,58872
182,1456014470.05295467376708984375,58224
183,1456014470.10334277153015136719,57592
184,1456014470.15254926681518554688,56976
185,1456014470.20292043685913085938,56360
186,1456014470.25316715240478515625,55760
187,1456014470.30247092247009277344,55184
188,1456014470.35305929183959960938,54600
189,1456014470.40324425697326660156,54040
190,1456014470.45254635810852050781,53496
191,1456014470.50278687477111816406,52960
192,1456014470.55315947532653808594,52440
193,1456014470.60220122337341308594,51952
194,1456014470.65259265899658203125,51464
195,1456014470.70279741287231445312,50992
196,1456014470.7529811859130859375,50544
197,1456014470.80238866806030273438,50112
198,1456014470.85252642631530761719,49704
199,1456014470.90289449691772460938,49304
200,1456014470.95308208465576171875,48936
201,1456014471.00344729423522949219,48576
202,1456014471.05265736579895019531,48248
203,1456014471.10321903228759765625,47936
204,1456014471.1524906158447265625,47656
205,1456014471.20271849632263183594,47384
206,1456014471.25314640998840332031,47136
207,1456014471.30220651626586914062,46920
208,1456014471.35261225700378417969,46720
209,1456014471.402759552001953125,46544
210,1456014471.45309352874755859375,46392
211,1456014471.50326204299926757812,46256
212,1456014471.55286550521850585938,46152
213,1456014471.6026859283447265625,46072
214,1456014471.65245270729064941406,46016
215,1456014471.70243120193481445312,45976
216,1456014471.75323939323425292969,45968
217,1456014471.80317449569702148438,45984
218,1456014471.85292315483093261719,46016
219,1456014471.90288114547729492188,46080
220,1456014471.95273685455322265625,46160
221,1456014472.00281977653503417969,46272
222,1456014472.05283999443054199219,46408
223,1456014472.10276293754577636719,46560
224,1456014472.15286922454833984375,46736
225,1456014472.20279049873352050781,46944
226,1456014472.252895355224609375,47168
227,1456014472.302753448486328125,47416
228,1456014472.35284066200256347656,47680
229,1456014472.40276813507080078125,47976
230,1456014472.45287942886352539062,48288
231,1456014472.5028228759765625,48624
232,1456014472.55269002914428710938,48976
233,1456014472.60276579856872558594,49352
234,1456014472.6526546478271484375,49744
235,1456014472.70271205902099609375,50160
236,1456014472.75268602371215820312,50592
237,1456014472.80290675163269042969,51040
238,1456014472.85284757614135742188,51512
239,1456014472.90302944183349609375,52000
240,1456014472.95298218727111816406,52504
241,1456014473.00285744667053222656,53016
242,1456014473.05300617218017578125,53552
243,1456014473.10291337966918945312,54104
244,1456014473.15292310714721679688,54664
245,1456014473.20279407501220703125,55240
246,1456014473.25302219390869140625,55832
247,1456014473.30304789543151855469,56432
248,1456014473.35316872596740722656,57048
249,1456014473.40310573577880859375,57672
250,1456014473.45304393768310546875,58304
251,1456014473.50321650505065917969,58944
252,1456014473.55313968658447265625,59592
253,1456014473.60322451591491699219,60248
254,1456014473.65312218666076660156,60912
255,1456014473.7033596038818359375,61584
256,1456014473.7521572113037109375,62240
257,1456014473.80309057235717773438,62936
258,1456014473.85304355621337890625,63616
259,1456014473.90295648574829101562,64296
260,1456014473.9530506134033203125,64984
261,1456014474.00296878814697265625,65664
262,1456014474.05308747291564941406,66352
263,1456014474.10309910774230957031,67040
264,1456014474.15330433845520019531,67728
265,1456014474.20324277877807617188,68408
266,1456014474.25330281257629394531,69088
267,1456014474.30214047431945800781,69744
268,1456014474.35309624671936035156,70424
269,1456014474.40214180946350097656,71072
270,1456014474.45305037498474121094,71744
271,1456014474.50318551063537597656,72392
272,1456014474.55305361747741699219,73032
273,1456014474.60326027870178222656,73664
274,1456014474.65313982963562011719,74288
275,1456014474.7032222747802734375,74896
276,1456014474.75323438644409179688,75496
277,1456014474.80313134193420410156,76080
278,1456014474.8531246185302734375,76656
279,1456014474.90293431282043457031,77216
280,1456014474.95305514335632324219,77768
281,1456014475.0028858184814453125,78296
282,1456014475.05302667617797851562,78816
283,1456014475.10290431976318359375,79312
284,1456014475.1528682708740234375,79800
285,1456014475.20270419120788574219,80264
286,1456014475.25256991386413574219,80712
287,1456014475.30259966850280761719,81144
288,1456014475.35247874259948730469,81552
289,1456014475.40254092216491699219,81944
290,1456014475.45233821868896484375,82320
291,1456014475.50342535972595214844,82680
292,1456014475.55282759666442871094,83008
293,1456014475.60233616828918457031,83312
294,1456014475.65290474891662597656,83608
295,1456014475.70215654373168945312,83864
296,1456014475.75258541107177734375,84112
297,1456014475.8029232025146484375,84336
298,1456014475.85219693183898925781,84536
299,1456014475.90228176116943359375,84712
300,1456014475.95265913009643554688,84864
301,1456014476.00287580490112304688,85000
302,1456014476.05325818061828613281,85104
303,1456014476.10250258445739746094,85184
304,1456014476.1527729034423828125,85240
305,1456014476.2031536102294921875,85280
306,1456014476.25225114822387695312,85288
307,1456014476.30283284187316894531,85272
308,1456014476.35307145118713378906,85240
309,1456014476.40347146987915039062,85176
310,1456014476.45267701148986816406,85096
311,1456014476.50309395790100097656,84984
312,1456014476.55222034454345703125,84856
313,1456014476.60228252410888671875,84696
314,1456014476.65267109870910644531,84520
315,1456014476.70286989212036132812,84312
316,1456014476.75225901603698730469,84096
317,1456014476.80243945121765136719,83848
318,1456014476.85280156135559082031,83576
319,1456014476.90306210517883300781,83280
320,1456014476.95232105255126953125,82976
321,1456014477.00273799896240234375,82640
322,1456014477.05314111709594726562,82280
323,1456014477.10262465476989746094,81904
324,1456014477.15289568901062011719,81512
325,1456014477.2022418975830078125,81104
326,1456014477.25251889228820800781,80664
327,1456014477.30292057991027832031,80216
328,1456014477.35314607620239257812,79744
329,1456014477.4023303985595703125,79264
330,1456014477.45269465446472167969,78760
331,1456014477.50287175178527832031,78240
332,1456014477.55227398872375488281,77712
333,1456014477.60246443748474121094,77160
334,1456014477.65294981002807617188,76592
335,1456014477.70315432548522949219,76008
336,1456014477.75250077247619628906,75432
337,1456014477.80278182029724121094,74824
338,1456014477.85315775871276855469,74208
339,1456014477.9022159576416015625,73600
340,1456014477.95246291160583496094,72960
341,1456014478.00291156768798828125,72312
342,1456014478.05316615104675292969,71664
343,1456014478.10260868072509765625,71016
344,1456014478.15287566184997558594,70344
345,1456014478.20323109626770019531,69672
346,1456014478.25246882438659667969,69008
347,1456014478.30289959907531738281,68328
348,1456014478.35316824913024902344,67640
349,1456014478.40215969085693359375,66968
350,1456014478.45271635055541992188,66280
351,1456014478.502933502197265625,65592
352,1456014478.55217242240905761719,64912
353,1456014478.60228323936462402344,64224
354,1456014478.65265655517578125,63536
355,1456014478.70282244682312011719,62856
356,1456014478.75318861007690429688,62168
357,1456014478.8021678924560546875,61512
358,1456014478.85221219062805175781,60840
359,1456014478.90271472930908203125,60176
360,1456014478.95291399955749511719,59512
361,1456014479.00320482254028320312,58864
362,1456014479.05234050750732421875,58232
363,1456014479.10283946990966796875,57600
364,1456014479.15307116508483886719,56976
365,1456014479.20342969894409179688,56360
366,1456014479.25261592864990234375,55768
367,1456014479.30282616615295410156,55176
368,1456014479.35323882102966308594,54600
369,1456014479.4022216796875,54048
370,1456014479.45258975028991699219,53496
371,1456014479.50276732444763183594,52960
372,1456014479.55312252044677734375,52440
373,1456014479.60218262672424316406,51952
374,1456014479.65271234512329101562,51464
375,1456014479.70298600196838378906,50992
376,1456014479.7531909942626953125,50536
377,1456014479.80244469642639160156,50112
378,1456014479.85262370109558105469,49704
379,1456014479.90300297737121582031,49304
380,1456014479.95329070091247558594,48928
381,1456014480.00263071060180664062,48584
382,1456014480.05285596847534179688,48248
383,1456014480.10330080986022949219,47936
384,1456014480.15253734588623046875,47656
385,1456014480.20266509056091308594,47384
386,1456014480.2530384063720703125,47136
387,1456014480.30324530601501464844,46920
388,1456014480.35259604454040527344,46720
389,1456014480.40276074409484863281,46544
390,1456014480.45310449600219726562,46392
391,1456014480.50219440460205078125,46264
392,1456014480.55285429954528808594,46152
393,1456014480.60268926620483398438,46072
394,1456014480.65251207351684570312,46016
395,1456014480.70249629020690917969,45976
396,1456014480.75211238861083984375,45968
397,1456014480.80304360389709472656,45984
398,1456014480.85271096229553222656,46016
399,1456014480.90268993377685546875,46080
400,1456014480.95255017280578613281,46160
401,1456014481.00273108482360839844,46272
402,1456014481.05273175239562988281,46408
403,1456014481.10267734527587890625,46560
404,1456014481.15284657478332519531,46736
405,1456014481.2027873992919921875,46944
406,1456014481.25288796424865722656,47168
407,1456014481.30280184745788574219,47416
408,1456014481.35299038887023925781,47680
409,1456014481.4029026031494140625,47976
410,1456014481.45293927192687988281,48288
411,1456014481.50292086601257324219,48624
412,1456014481.55285978317260742188,48976
413,1456014481.60297489166259765625,49352
414,1456014481.65287423133850097656,49744
415,1456014481.7029514312744140625,50160
416,1456014481.75285744667053222656,50592
417,1456014481.80308270454406738281,51048
418,1456014481.85300683975219726562,51512
419,1456014481.90311646461486816406,52000
420,1456014481.95308399200439453125,52504
421,1456014482.00298523902893066406,53024
422,1456014482.05308985710144042969,53560
423,1456014482.10301136970520019531,54104
424,1456014482.15305376052856445312,54664
425,1456014482.20299386978149414062,55240
426,1456014482.25322198867797851562,55832
427,1456014482.30315709114074707031,56432
428,1456014482.35321593284606933594,57048
429,1456014482.40310311317443847656,57672
430,1456014482.452999114990234375,58304
431,1456014482.50317144393920898438,58944
432,1456014482.5531444549560546875,59592
433,1456014482.60211515426635742188,60232
434,1456014482.65300703048706054688,60912
435,1456014482.7032184600830078125,61584
436,1456014482.75320720672607421875,62256
437,1456014482.80234885215759277344,62920
438,1456014482.85223555564880371094,63600
439,1456014482.90317988395690917969,64296
440,1456014482.9521808624267578125,64968
441,1456014483.00308537483215332031,65672
442,1456014483.05325150489807128906,66360
443,1456014483.10325217247009277344,67040
444,1456014483.153499603271484375,67728
445,1456014483.20247936248779296875,68400
446,1456014483.25262737274169921875,69080
447,1456014483.30263924598693847656,69752
448,1456014483.35265445709228515625,70416
449,1456014483.40279388427734375,71080
450,1456014483.45275735855102539062,71736
451,1456014483.50304007530212402344,72392
452,1456014483.55294632911682128906,73032
453,1456014483.60296893119812011719,73664
454,1456014483.65279483795166015625,74280
455,1456014483.70285296440124511719,74888
456,1456014483.75283360481262207031,75488
457,1456014483.80274724960327148438,76080
458,1456014483.85274076461791992188,76656
459,1456014483.90250563621520996094,77208
460,1456014483.95257306098937988281,77760
461,1456014484.00225973129272460938,78288
462,1456014484.05339479446411132812,78816
463,1456014484.10217761993408203125,79304
464,1456014484.15324234962463378906,79800
465,1456014484.203022003173828125,80264
466,1456014484.25286626815795898438,80712
467,1456014484.30287647247314453125,81144
468,1456014484.35271382331848144531,81552
469,1456014484.40282607078552246094,81952
470,1456014484.45265150070190429688,82320
471,1456014484.50267767906188964844,82672
472,1456014484.55312085151672363281,83008
473,1456014484.60276675224304199219,83312
474,1456014484.65217733383178710938,83600
475,1456014484.70261240005493164062,83872
476,1456014484.75303101539611816406,84120
477,1456014484.80219864845275878906,84336
478,1456014484.85269665718078613281,84536
479,1456014484.90294051170349121094,84712
