id, time (s), size (bits)
0,1456014460.92841506004333496094,59840
1,1456014460.97745943069458007812,59200
2,1456014461.02818608283996582031,58544
3,1456014461.07803320884704589844,57912
4,1456014461.12749004364013671875,57288
5,1456014461.178253173828125,56664
6,1456014461.22781991958618164062,56064
7,1456014461.27747225761413574219,55472
8,1456014461.32741689682006835938,54896
9,1456014461.3778934478759765625,54320
10,1456014461.4276256561279296875,53768
11,1456014461.47694754600524902344,53232
12,1456014461.52781605720520019531,52704
13,1456014461.57740020751953125,52200
14,1456014461.62799382209777832031,51696
15,1456014461.67756867408752441406,51224
16,1456014461.72805190086364746094,50760
17,1456014461.77804684638977050781,50320
18,1456014461.82766366004943847656,49904
19,1456014461.87728047370910644531,49504
20,1456014461.92784976959228515625,49120
21,1456014461.97752213478088378906,48760
22,1456014462.02824521064758300781,48408
23,1456014462.078281402587890625,48088
24,1456014462.12794327735900878906,47792
25,1456014462.17755675315856933594,47520
26,1456014462.22744917869567871094,47264
27,1456014462.27813839912414550781,47024
28,1456014462.327709197998046875,46816
29,1456014462.37779188156127929688,46624
30,1456014462.42806220054626464844,46464
31,1456014462.47728133201599121094,46320
32,1456014462.52762699127197265625,46200
33,1456014462.57797002792358398438,46112
34,1456014462.62810444831848144531,46040
35,1456014462.677490234375,45992
36,1456014462.72760534286499023438,45968
37,1456014462.7778186798095703125,45968
38,1456014462.82815265655517578125,46000
39,1456014462.87732863426208496094,46048
40,1456014462.92729401588439941406,46120
41,1456014462.97755455970764160156,46216
42,1456014463.0276355743408203125,46336
43,1456014463.07775378227233886719,46480
44,1456014463.12805604934692382812,46648
45,1456014463.17812681198120117188,46840
46,1456014463.22730255126953125,47048
47,1456014463.27748775482177734375,47288
48,1456014463.32770848274230957031,47544
49,1456014463.37778973579406738281,47824
50,1456014463.42807841300964355469,48128
51,1456014463.47823333740234375,48456
52,1456014463.52716875076293945312,48792
53,1456014463.57741522789001464844,49160
54,1456014463.62749981880187988281,49544
55,1456014463.67771625518798828125,49952
56,1456014463.72787809371948242188,50376
57,1456014463.77819848060607910156,50816
58,1456014463.82708835601806640625,51264
59,1456014463.87833905220031738281,51760
60,1456014463.92740631103515625,52240
61,1456014463.97752499580383300781,52752
62,1456014464.0278453826904296875,53288
63,1456014464.07797574996948242188,53824
64,1456014464.12816143035888671875,54384
65,1456014464.17748355865478515625,54944
66,1456014464.22783756256103515625,55536
67,1456014464.27796173095703125,56128
68,1456014464.32822132110595703125,56744
69,1456014464.37723302841186523438,57344
70,1456014464.42716860771179199219,57976
71,1456014464.47753977775573730469,58616
72,1456014464.52773427963256835938,59264
73,1456014464.57793712615966796875,59920
74,1456014464.62798094749450683594,60576
75,1456014464.67825603485107421875,61248
76,1456014464.72728109359741210938,61904
77,1456014464.77766942977905273438,62584
78,1456014464.82776355743408203125,63272
79,1456014464.87785792350769042969,63952
80,1456014464.92814183235168457031,64640
81,1456014464.97722625732421875,65312
82,1456014465.02756333351135253906,66008
83,1456014465.0776195526123046875,66688
84,1456014465.12804961204528808594,67384
85,1456014465.17813730239868164062,68064
86,1456014465.22824358940124511719,68744
87,1456014465.27727556228637695312,69408
88,1456014465.32734942436218261719,70080
89,1456014465.37772202491760253906,70752
90,1456014465.42788600921630859375,71416
91,1456014465.47812247276306152344,72072
92,1456014465.52821326255798339844,72712
93,1456014465.57745122909545898438,73344
94,1456014465.62749266624450683594,73968
95,1456014465.67779874801635742188,74584
96,1456014465.72782206535339355469,75192
97,1456014465.778034210205078125,75792
98,1456014465.82712292671203613281,76360
99,1456014465.87814164161682128906,76936
100,1456014465.92719125747680664062,77480
101,1456014465.97813820838928222656,78032
102,1456014466.02849698066711425781,78560
103,1456014466.077449798583984375,79064
104,1456014466.12755465507507324219,79552
105,1456014466.17750835418701171875,80032
106,1456014466.22754359245300292969,80488
107,1456014466.27782607078552246094,80928
108,1456014466.32782030105590820312,81352
109,1456014466.3779430389404296875,81752
110,1456014466.42785573005676269531,82136
111,1456014466.4781360626220703125,82504
112,1456014466.528163909912109375,82848
113,1456014466.57791900634765625,83160
114,1456014466.62753248214721679688,83464
115,1456014466.6779422760009765625,83744
116,1456014466.727649688720703125,83992
117,1456014466.77720665931701660156,84224
118,1456014466.82800579071044921875,84440
119,1456014466.87716436386108398438,84624
120,1456014466.92789411544799804688,84792
121,1456014466.97711110115051269531,84936
122,1456014467.02762651443481445312,85056
123,1456014467.07807517051696777344,85144
124,1456014467.12734484672546386719,85216
125,1456014467.17792558670043945312,85264
126,1456014467.22719740867614746094,85288
127,1456014467.27792572975158691406,85288
128,1456014467.32714772224426269531,85264
129,1456014467.37821626663208007812,85208
130,1456014467.42755770683288574219,85136
131,1456014467.47834062576293945312,85040
132,1456014467.52762150764465332031,84920
133,1456014467.57794833183288574219,84776
134,1456014467.62734127044677734375,84608
135,1456014467.67780375480651855469,84416
136,1456014467.72739720344543457031,84208
137,1456014467.77769398689270019531,83968
138,1456014467.82817029953002929688,83712
139,1456014467.87745380401611328125,83432
140,1456014467.92805504798889160156,83128
141,1456014467.97744846343994140625,82808
142,1456014468.02770018577575683594,82464
143,1456014468.07723522186279296875,82104
144,1456014468.1275920867919921875,81712
145,1456014468.17827725410461425781,81304
146,1456014468.22759199142456054688,80888
147,1456014468.27826714515686035156,80440
148,1456014468.32759261131286621094,79984
149,1456014468.37809395790100097656,79504
150,1456014468.42731308937072753906,79016
151,1456014468.47772479057312011719,78496
152,1456014468.52705717086791992188,77976
153,1456014468.5774288177490234375,77432
154,1456014468.62793421745300292969,76872
155,1456014468.67722964286804199219,76312
156,1456014468.72781229019165039062,75720
157,1456014468.77806830406188964844,75120
158,1456014468.82746195793151855469,74528
159,1456014468.87784671783447265625,73904
160,1456014468.92806839942932128906,73272
161,1456014468.97749757766723632812,72640
162,1456014469.02778339385986328125,71992
163,1456014469.07735109329223632812,71344
164,1456014469.12771654129028320312,70680
165,1456014469.17821717262268066406,70008
166,1456014469.22751164436340332031,69344
167,1456014469.27805328369140625,68664
168,1456014469.32749128341674804688,67992
169,1456014469.37789034843444824219,67304
170,1456014469.4273700714111328125,66624
171,1456014469.47772431373596191406,65936
172,1456014469.52815771102905273438,65240
173,1456014469.57749724388122558594,64568
174,1456014469.62805104255676269531,63872
175,1456014469.677204132080078125,63200
176,1456014469.72768259048461914062,62520
177,1456014469.77799272537231445312,61840
178,1456014469.82718706130981445312,61176
179,1456014469.87783002853393554688,60504
180,1456014469.92811036109924316406,59840
181,1456014469.97754120826721191406,59192
182,1456014470.02776217460632324219,58544
183,1456014470.07835102081298828125,57904
184,1456014470.12764668464660644531,57288
185,1456014470.17809605598449707031,56664
186,1456014470.2272434234619140625,56072
187,1456014470.2776126861572265625,55472
188,1456014470.32718133926391601562,54896
189,1456014470.37755942344665527344,54320
190,1456014470.42794442176818847656,53768
191,1456014470.47825217247009277344,53224
192,1456014470.5276966094970703125,52704
193,1456014470.5781040191650390625,52192
194,1456014470.62755537033081054688,51704
195,1456014470.67789340019226074219,51224
196,1456014470.72818160057067871094,50760
197,1456014470.777751922607421875,50328
198,1456014470.82811069488525390625,49904
199,1456014470.877593994140625,49504
200,1456014470.92789602279663085938,49120
201,1456014470.97841882705688476562,48752
202,1456014471.02763581275939941406,48416
203,1456014471.07833886146545410156,48088
204,1456014471.12766051292419433594,47792
205,1456014471.17793035507202148438,47512
206,1456014471.22740721702575683594,47264
207,1456014471.27780437469482421875,47024
208,1456014471.327114105224609375,46816
209,1456014471.37740921974182128906,46632
210,1456014471.4279766082763671875,46464
211,1456014471.47723531723022460938,46320
212,1456014471.52806997299194335938,46200
213,1456014471.57752108573913574219,46112
214,1456014471.62744259834289550781,46040
215,1456014471.67751526832580566406,45992
216,1456014471.72745633125305175781,45968
217,1456014471.77756524085998535156,45968
218,1456014471.8274669647216796875,45992
219,1456014471.87774157524108886719,46048
220,1456014471.92775440216064453125,46120
221,1456014471.97809624671936035156,46216
222,1456014472.02712392807006835938,46336
223,1456014472.0770397186279296875,46480
224,1456014472.12712907791137695312,46648
225,1456014472.17704224586486816406,46832
226,1456014472.22722578048706054688,47048
227,1456014472.2772197723388671875,47280
228,1456014472.32730460166931152344,47544
229,1456014472.37724995613098144531,47824
230,1456014472.42755842208862304688,48128
231,1456014472.47778439521789550781,48448
232,1456014472.52788877487182617188,48792
233,1456014472.57809042930603027344,49160
234,1456014472.628086090087890625,49544
235,1456014472.67716050148010253906,49944
236,1456014472.72822904586791992188,50376
237,1456014472.77740073204040527344,50808
238,1456014472.82742357254028320312,51272
239,1456014472.87775278091430664062,51752
240,1456014472.92785978317260742188,52248
241,1456014472.97800087928771972656,52760
242,1456014473.02718782424926757812,53280
243,1456014473.07710123062133789062,53816
244,1456014473.12730956077575683594,54376
245,1456014473.17739176750183105469,54944
246,1456014473.22762989997863769531,55536
247,1456014473.27769398689270019531,56128
248,1456014473.32788300514221191406,56736
249,1456014473.37806749343872070312,57360
250,1456014473.42817997932434082031,57984
251,1456014473.47740387916564941406,58616
252,1456014473.52744054794311523438,59256
253,1456014473.57765531539916992188,59912
254,1456014473.62776064872741699219,60576
255,1456014473.67820620536804199219,61248
256,1456014473.72713136672973632812,61904
257,1456014473.77817082405090332031,62592
258,1456014473.82714104652404785156,63264
259,1456014473.878276824951171875,63960
260,1456014473.92761135101318359375,64632
261,1456014473.97765588760375976562,65320
262,1456014474.02792787551879882812,66008
263,1456014474.07813501358032226562,66696
264,1456014474.1284332275390625,67384
265,1456014474.17747378349304199219,68056
266,1456014474.227695465087890625,68736
267,1456014474.27789473533630371094,69416
268,1456014474.32801532745361328125,70088
269,1456014474.37705159187316894531,70744
270,1456014474.42804479598999023438,71416
271,1456014474.47720289230346679688,72056
272,1456014474.52718639373779296875,72704
273,1456014474.57744288444519042969,73344
274,1456014474.62746024131774902344,73968
275,1456014474.67767810821533203125,74584
276,1456014474.72771501541137695312,75192
277,1456014474.77793264389038085938,75784
278,1456014474.82816243171691894531,76368
279,1456014474.87810039520263671875,76936
280,1456014474.92827606201171875,77496
281,1456014474.97713994979858398438,78024
282,1456014475.02834653854370117188,78560
283,1456014475.07713913917541503906,79056
284,1456014475.12826561927795410156,79560
285,1456014475.17722225189208984375,80024
286,1456014475.22711181640625,80488
287,1456014475.27719163894653320312,80928
288,1456014475.32713270187377929688,81344
289,1456014475.37733960151672363281,81752
290,1456014475.42726039886474609375,82136
291,1456014475.47737097740173339844,82496
292,1456014475.52791500091552734375,82840
293,1456014475.57758593559265136719,83160
294,1456014475.62817835807800292969,83464
295,1456014475.67782163619995117188,83744
296,1456014475.72763323783874511719,83992
297,1456014475.77806687355041503906,84232
298,1456014475.82772040367126464844,84440
299,1456014475.8780612945556640625,84632
300,1456014475.92736220359802246094,84792
301,1456014475.97765207290649414062,84936
302,1456014476.02814149856567382812,85056
303,1456014476.07758951187133789062,85144
304,1456014476.12795257568359375,85216
305,1456014476.17731261253356933594,85264
306,1456014476.22765064239501953125,85288
307,1456014476.27709364891052246094,85288
308,1456014476.32754588127136230469,85264
309,1456014476.37807989120483398438,85208
310,1456014476.4273700714111328125,85136
311,1456014476.47797298431396484375,85040
312,1456014476.52717494964599609375,84920
313,1456014476.57762217521667480469,84776
314,1456014476.62817239761352539062,84608
315,1456014476.67743325233459472656,84424
316,1456014476.72818207740783691406,84200
317,1456014476.77752327919006347656,83968
318,1456014476.82801389694213867188,83712
319,1456014476.87720227241516113281,83432
320,1456014476.92771244049072265625,83128
321,1456014476.97812914848327636719,82800
322,1456014477.02743244171142578125,82464
323,1456014477.07804942131042480469,82096
324,1456014477.12720417976379394531,81720
325,1456014477.17760944366455078125,81312
326,1456014477.22796583175659179688,80880
327,1456014477.27736806869506835938,80448
328,1456014477.3276653289794921875,79984
329,1456014477.37808823585510253906,79504
330,1456014477.4274616241455078125,79016
331,1456014477.47789502143859863281,78496
332,1456014477.52751183509826660156,77976
333,1456014477.577762603759765625,77432
334,1456014477.62723302841186523438,76880
335,1456014477.67757844924926757812,76304
336,1456014477.72809076309204101562,75720
337,1456014477.77741575241088867188,75128
338,1456014477.82791209220886230469,74520
339,1456014477.87721109390258789062,73912
340,1456014477.92757439613342285156,73280
341,1456014477.9782428741455078125,72632
342,1456014478.027553558349609375,72000
343,1456014478.07808947563171386719,71336
344,1456014478.12748670578002929688,70688
345,1456014478.17804265022277832031,70008
346,1456014478.22717881202697753906,69352
347,1456014478.27767968177795410156,68672
348,1456014478.32799959182739257812,67984
349,1456014478.37720894813537597656,67312
350,1456014478.42791104316711425781,66616
351,1456014478.47708106040954589844,65944
352,1456014478.52758026123046875,65248
353,1456014478.57775259017944335938,64560
354,1456014478.62838697433471679688,63872
355,1456014478.67768144607543945312,63200
356,1456014478.72811985015869140625,62512
357,1456014478.77731370925903320312,61848
358,1456014478.8276271820068359375,61168
359,1456014478.87835097312927246094,60496
360,1456014478.92767500877380371094,59848
361,1456014478.97805309295654296875,59192
362,1456014479.02717924118041992188,58552
363,1456014479.077716827392578125,57912
364,1456014479.12805843353271484375,57280
365,1456014479.17748212814331054688,56672
366,1456014479.22783684730529785156,56064
367,1456014479.27821421623229980469,55464
368,1456014479.32765793800354003906,54888
369,1456014479.37804412841796875,54320
370,1456014479.42749524116516113281,53768
371,1456014479.47779917716979980469,53224
372,1456014479.52841639518737792969,52696
373,1456014479.57771563529968261719,52192
374,1456014479.62830376625061035156,51696
375,1456014479.67768573760986328125,51224
376,1456014479.72800397872924804688,50760
377,1456014479.77746176719665527344,50328
378,1456014479.8278179168701171875,49904
379,1456014479.87714695930480957031,49504
380,1456014479.92748236656188964844,49120
381,1456014479.97789311408996582031,48752
382,1456014480.02829074859619140625,48408
383,1456014480.07786250114440917969,48096
384,1456014480.12705564498901367188,47800
385,1456014480.17727160453796386719,47520
386,1456014480.2277240753173828125,47264
387,1456014480.27811717987060546875,47024
388,1456014480.32759070396423339844,46816
389,1456014480.37776446342468261719,46624
390,1456014480.42823743820190429688,46464
391,1456014480.47751283645629882812,46320
392,1456014480.52837800979614257812,46200
393,1456014480.57792043685913085938,46112
394,1456014480.62782883644104003906,46040
395,1456014480.67794656753540039062,45992
396,1456014480.72780323028564453125,45968
397,1456014480.77797222137451171875,45968
398,1456014480.82793116569519042969,46000
399,1456014480.87808156013488769531,46048
400,1456014480.9281101226806640625,46120
401,1456014480.97717714309692382812,46216
402,1456014481.0272006988525390625,46336
403,1456014481.07720637321472167969,46480
404,1456014481.12745928764343261719,46648
405,1456014481.17754864692687988281,46840
406,1456014481.22776508331298828125,47048
407,1456014481.27791118621826171875,47288
408,1456014481.3283519744873046875,47544
409,1456014481.3773632049560546875,47824
410,1456014481.42739772796630859375,48128
411,1456014481.47744154930114746094,48448
412,1456014481.52755904197692871094,48792
413,1456014481.57790780067443847656,49160
414,1456014481.62793397903442382812,49544
415,1456014481.67820882797241210938,49952
416,1456014481.72712397575378417969,50368
417,1456014481.77856469154357910156,50824
418,1456014481.82767510414123535156,51272
419,1456014481.87792277336120605469,51752
420,1456014481.92807173728942871094,52248
421,1456014481.97813200950622558594,52760
422,1456014482.027141571044921875,53280
423,1456014482.07818865776062011719,53832
424,1456014482.12739682197570800781,54376
425,1456014482.17758345603942871094,54952
426,1456014482.22805619239807128906,55536
427,1456014482.27820992469787597656,56136
428,1456014482.32732462882995605469,56728
429,1456014482.37739062309265136719,57344
430,1456014482.42747807502746582031,57976
431,1456014482.47780776023864746094,58616
432,1456014482.52785181999206542969,59264
433,1456014482.57809758186340332031,59920
434,1456014482.62705183029174804688,60568
435,1456014482.67857956886291503906,61256
436,1456014482.72773909568786621094,61912
437,1456014482.77796339988708496094,62592
438,1456014482.82814884185791015625,63272
439,1456014482.87722539901733398438,63944
440,1456014482.92746901512145996094,64632
441,1456014482.97755265235900878906,65320
442,1456014483.02789282798767089844,66008
443,1456014483.0780506134033203125,66696
444,1456014483.1283512115478515625,67384
445,1456014483.17741322517395019531,68056
446,1456014483.22770214080810546875,68736
447,1456014483.27786779403686523438,69416
448,1456014483.32811903953552246094,70088
449,1456014483.37747478485107421875,70752
450,1456014483.42753314971923828125,71408
451,1456014483.47789216041564941406,72064
452,1456014483.52799153327941894531,72712
453,1456014483.57829046249389648438,73352
454,1456014483.62725305557250976562,73968
455,1456014483.67730808258056640625,74584
456,1456014483.72724628448486328125,75184
457,1456014483.77742338180541992188,75784
458,1456014483.82757067680358886719,76368
459,1456014483.87756490707397460938,76936
460,1456014483.92775416374206542969,77488
461,1456014483.97771477699279785156,78032
462,1456014484.02783918380737304688,78552
463,1456014484.07794141769409179688,79064
464,1456014484.12814569473266601562,79560
465,1456014484.17808079719543457031,80032
466,1456014484.22811102867126464844,80496
467,1456014484.27718639373779296875,80928
468,1456014484.32703566551208496094,81344
469,1456014484.37715268135070800781,81752
470,1456014484.42813897132873535156,82136
471,1456014484.4784488677978515625,82504
472,1456014484.52798104286193847656,82840
473,1456014484.57767009735107421875,83160
474,1456014484.62710857391357421875,83456
475,1456014484.67767572402954101562,83736
476,1456014484.72736763954162597656,83992
477,1456014484.77802062034606933594,84232
478,1456014484.82757711410522460938,84440
479,1456014484.87800669670104980469,84632
480,1456014484.92739391326904296875,84792
