id, time (s), size (bits)
0,1456014461.96242809295654296875,48864
1,1456014462.01164460182189941406,48520
2,1456014462.06118917465209960938,48200
3,1456014462.11200714111328125,47888
4,1456014462.16165900230407714844,47600
5,1456014462.2113590240478515625,47344
6,1456014462.26216363906860351562,47096
7,1456014462.31167364120483398438,46880
8,1456014462.36203026771545410156,46688
9,1456014462.4121227264404296875,46512
10,1456014462.46141266822814941406,46368
11,1456014462.51152205467224121094,46240
12,1456014462.56184482574462890625,46136
13,1456014462.61190962791442871094,46056
14,1456014462.662136077880859375,46008
15,1456014462.71112966537475585938,45976
16,1456014462.7612361907958984375,45968
17,1456014462.81179952621459960938,45984
18,1456014462.86189556121826171875,46024
19,1456014462.91116952896118164062,46088
20,1456014462.96118307113647460938,46184
21,1456014463.01136517524719238281,46296
22,1456014463.06147718429565429688,46432
23,1456014463.11175799369812011719,46592
24,1456014463.16203069686889648438,46776
25,1456014463.21215462684631347656,46984
26,1456014463.26148867607116699219,47208
27,1456014463.3115520477294921875,47456
28,1456014463.36178922653198242188,47736
29,1456014463.41195964813232421875,48032
30,1456014463.46231031417846679688,48352
31,1456014463.51138210296630859375,48680
32,1456014463.5616626739501953125,49040
33,1456014463.61185121536254882812,49416
34,1456014463.66197109222412109375,49816
35,1456014463.71140170097351074219,50232
36,1456014463.76147198677062988281,50672
37,1456014463.8117961883544921875,51128
38,1456014463.8618640899658203125,51600
39,1456014463.91210794448852539062,52088
40,1456014463.96111607551574707031,52584
41,1456014464.01129031181335449219,53112
42,1456014464.061496734619140625,53648
43,1456014464.11156964302062988281,54200
44,1456014464.16175103187561035156,54768
45,1456014464.21182608604431152344,55344
46,1456014464.262119293212890625,55944
47,1456014464.31230854988098144531,56544
48,1456014464.36166667938232421875,57152
49,1456014464.41171216964721679688,57776
50,1456014464.46202826499938964844,58416
51,1456014464.51100420951843261719,59048
52,1456014464.56212973594665527344,59712
53,1456014464.61152434349060058594,60360
54,1456014464.66154885292053222656,61024
55,1456014464.71179294586181640625,61696
56,1456014464.76184988021850585938,62376
57,1456014464.81217718124389648438,63056
58,1456014464.86120295524597167969,63728
59,1456014464.91152238845825195312,64416
60,1456014464.96178865432739257812,65104
61,1456014465.01188063621520996094,65792
62,1456014465.06116819381713867188,66464
63,1456014465.11121845245361328125,67152
64,1456014465.161441802978515625,67840
65,1456014465.21191501617431640625,68528
66,1456014465.26222991943359375,69208
67,1456014465.31125879287719726562,69864
68,1456014465.36168408393859863281,70536
69,1456014465.4118099212646484375,71200
70,1456014465.46195459365844726562,71856
71,1456014465.51115202903747558594,72496
72,1456014465.56212282180786132812,73144
73,1456014465.61112618446350097656,73760
74,1456014465.66108083724975585938,74384
75,1456014465.71233248710632324219,75008
76,1456014465.76158881187438964844,75592
77,1456014465.81186413764953613281,76184
78,1456014465.86187529563903808594,76760
79,1456014465.91195011138916015625,77312
80,1456014465.96225619316101074219,77864
81,1456014466.01116538047790527344,78384
82,1456014466.06117010116577148438,78896
83,1456014466.11218166351318359375,79408
84,1456014466.16241121292114257812,79888
85,1456014466.21145367622375488281,80344
86,1456014466.26164221763610839844,80792
87,1456014466.31163859367370605469,81216
88,1456014466.36169147491455078125,81624
89,1456014466.41185522079467773438,82016
90,1456014466.46195554733276367188,82384
91,1456014466.512149810791015625,82736
92,1456014466.56169939041137695312,83064
93,1456014466.61170125007629394531,83368
94,1456014466.6611480712890625,83648
95,1456014466.71194601058959960938,83920
96,1456014466.76167631149291992188,84160
97,1456014466.81100988388061523438,84376
98,1456014466.86180472373962402344,84568
99,1456014466.91118860244750976562,84744
100,1456014466.96174645423889160156,84888
101,1456014467.01208233833312988281,85016
102,1456014467.06170630455017089844,85120
103,1456014467.1122894287109375,85200
104,1456014467.16184186935424804688,85248
105,1456014467.21217894554138183594,85280
106,1456014467.26159715652465820312,85288
107,1456014467.3121128082275390625,85272
108,1456014467.36144614219665527344,85232
109,1456014467.41199135780334472656,85160
110,1456014467.46137738227844238281,85072
111,1456014467.51212143898010253906,84960
112,1456014467.56145071983337402344,84824
113,1456014467.61193680763244628906,84664
114,1456014467.661182403564453125,84488
115,1456014467.7115306854248046875,84280
116,1456014467.76208710670471191406,84048
117,1456014467.81137108802795410156,83800
118,1456014467.86184740066528320312,83520
119,1456014467.9122447967529296875,83224
120,1456014467.96185469627380371094,82912
121,1456014468.01118826866149902344,82576
122,1456014468.06185245513916015625,82216
123,1456014468.11103487014770507812,81840
124,1456014468.16127109527587890625,81440
125,1456014468.21169257164001464844,81024
126,1456014468.26215624809265136719,80584
127,1456014468.31177210807800292969,80128
128,1456014468.36207890510559082031,79656
129,1456014468.41210770606994628906,79168
130,1456014468.461536407470703125,78664
131,1456014468.51207304000854492188,78136
132,1456014468.56143808364868164062,77608
133,1456014468.61168360710144042969,77056
134,1456014468.66124320030212402344,76496
135,1456014468.71161127090454101562,75912
136,1456014468.76229882240295410156,75312
137,1456014468.81164669990539550781,74720
138,1456014468.86217737197875976562,74096
139,1456014468.91157245635986328125,73480
140,1456014468.96213507652282714844,72840
141,1456014469.01138544082641601562,72208
142,1456014469.06171655654907226562,71552
143,1456014469.11107897758483886719,70904
144,1456014469.16156625747680664062,70232
145,1456014469.21218132972717285156,69552
146,1456014469.26141905784606933594,68888
147,1456014469.31194639205932617188,68200
148,1456014469.36111569404602050781,67536
149,1456014469.41162419319152832031,66840
150,1456014469.46200489997863769531,66152
151,1456014469.51117563247680664062,65472
152,1456014469.56168794631958007812,64784
153,1456014469.6119785308837890625,64096
154,1456014469.66162848472595214844,63416
155,1456014469.71199369430541992188,62728
156,1456014469.76128721237182617188,62064
157,1456014469.81172609329223632812,61384
158,1456014469.86219239234924316406,60712
159,1456014469.91154909133911132812,60056
160,1456014469.96198773384094238281,59400
161,1456014470.01137065887451171875,58760
162,1456014470.06179833412170410156,58112
163,1456014470.11136507987976074219,57488
164,1456014470.16161441802978515625,56864
165,1456014470.21205472946166992188,56256
166,1456014470.26134800910949707031,55664
167,1456014470.31198000907897949219,55072
168,1456014470.36125063896179199219,54504
169,1456014470.41148662567138671875,53944
170,1456014470.46206021308898925781,53392
171,1456014470.51131582260131835938,52872
172,1456014470.56183600425720214844,52352
173,1456014470.61217212677001953125,51848
174,1456014470.66160988807678222656,51376
175,1456014470.71202301979064941406,50904
176,1456014470.76135301589965820312,50464
177,1456014470.81172108650207519531,50040
178,1456014470.86205649375915527344,49624
179,1456014470.91171932220458984375,49240
180,1456014470.96216678619384765625,48864
181,1456014471.01162576675415039062,48520
182,1456014471.06191992759704589844,48192
183,1456014471.11241030693054199219,47880
184,1456014471.16166067123413085938,47600
185,1456014471.21221232414245605469,47336
186,1456014471.26155948638916015625,47096
187,1456014471.31186771392822265625,46880
188,1456014471.3614177703857421875,46688
189,1456014471.41189646720886230469,46512
190,1456014471.46129345893859863281,46368
191,1456014471.51190972328186035156,46240
192,1456014471.56146931648254394531,46136
193,1456014471.61126041412353515625,46056
194,1456014471.66121006011962890625,46008
195,1456014471.712158203125,45976
196,1456014471.76204729080200195312,45968
197,1456014471.81110882759094238281,45984
198,1456014471.86202120780944824219,46024
199,1456014471.91125631332397460938,46088
200,1456014471.96117258071899414062,46184
201,1456014472.01133489608764648438,46296
202,1456014472.06145358085632324219,46432
203,1456014472.11193323135375976562,46592
204,1456014472.16205239295959472656,46776
205,1456014472.21213197708129882812,46984
206,1456014472.26138710975646972656,47208
207,1456014472.3114643096923828125,47456
208,1456014472.36181855201721191406,47736
209,1456014472.41194391250610351562,48032
210,1456014472.4621429443359375,48344
211,1456014472.512340545654296875,48688
212,1456014472.56162953376770019531,49040
213,1456014472.6117534637451171875,49416
214,1456014472.66186976432800292969,49816
215,1456014472.71212697029113769531,50240
216,1456014472.76222467422485351562,50672
217,1456014472.81150174140930175781,51120
218,1456014472.86168456077575683594,51600
219,1456014472.91200947761535644531,52088
220,1456014472.96207284927368164062,52592
221,1456014473.01249480247497558594,53120
222,1456014473.06170940399169921875,53648
223,1456014473.11179256439208984375,54200
224,1456014473.16207218170166015625,54768
225,1456014473.21212482452392578125,55352
226,1456014473.26139044761657714844,55936
227,1456014473.31156229972839355469,56536
228,1456014473.36169362068176269531,57152
229,1456014473.4118061065673828125,57776
230,1456014473.46221923828125,58416
231,1456014473.51152062416076660156,59048
232,1456014473.561740875244140625,59704
233,1456014473.61200737953186035156,60368
234,1456014473.66206121444702148438,61032
235,1456014473.7113132476806640625,61688
236,1456014473.76135396957397460938,62368
237,1456014473.81174707412719726562,63048
238,1456014473.86178874969482421875,63736
239,1456014473.91208887100219726562,64424
240,1456014473.96110868453979492188,65096
241,1456014474.01218199729919433594,65792
242,1456014474.06148505210876464844,66472
243,1456014474.11153244972229003906,67160
244,1456014474.16187167167663574219,67848
245,1456014474.2119770050048828125,68528
246,1456014474.26224112510681152344,69208
247,1456014474.31140232086181640625,69864
248,1456014474.36164617538452148438,70536
249,1456014474.41180634498596191406,71200
250,1456014474.46197772026062011719,71856
251,1456014474.51113438606262207031,72496
252,1456014474.56213521957397460938,73144
253,1456014474.61117959022521972656,73760
254,1456014474.66122364997863769531,74384
255,1456014474.71148920059204101562,75000
256,1456014474.76160025596618652344,75592
257,1456014474.81165337562561035156,76184
258,1456014474.86164402961730957031,76752
259,1456014474.91157698631286621094,77312
260,1456014474.96182703971862792969,77856
261,1456014475.01180720329284667969,78392
262,1456014475.06205296516418457031,78904
263,1456014475.11204171180725097656,79400
264,1456014475.16220712661743164062,79888
265,1456014475.21113348007202148438,80336
266,1456014475.26233887672424316406,80800
267,1456014475.31133413314819335938,81216
268,1456014475.36142945289611816406,81624
269,1456014475.41162919998168945312,82016
270,1456014475.46167063713073730469,82384
271,1456014475.51185250282287597656,82736
272,1456014475.56159424781799316406,83064
273,1456014475.61138987541198730469,83368
274,1456014475.66193222999572753906,83656
275,1456014475.7115936279296875,83912
276,1456014475.76213288307189941406,84160
277,1456014475.81160306930541992188,84376
278,1456014475.86216139793395996094,84576
279,1456014475.91151833534240722656,84744
280,1456014475.96215844154357910156,84896
281,1456014476.01143479347229003906,85016
282,1456014476.06207203865051269531,85120
283,1456014476.11143469810485839844,85200
284,1456014476.16193914413452148438,85248
285,1456014476.2112255096435546875,85280
286,1456014476.26164031028747558594,85288
287,1456014476.31214570999145507812,85272
288,1456014476.3614521026611328125,85232
289,1456014476.41201281547546386719,85160
290,1456014476.46133518218994140625,85072
291,1456014476.51193571090698242188,84960
292,1456014476.56107735633850097656,84824
293,1456014476.61146378517150878906,84664
294,1456014476.66180396080017089844,84480
295,1456014476.71215486526489257812,84272
296,1456014476.76166892051696777344,84048
297,1456014476.81195425987243652344,83792
298,1456014476.86158442497253417969,83528
299,1456014476.91207456588745117188,83224
300,1456014476.96160864830017089844,82912
301,1456014477.01193094253540039062,82576
302,1456014477.06124591827392578125,82216
303,1456014477.11171793937683105469,81840
304,1456014477.16209197044372558594,81440
305,1456014477.2116031646728515625,81024
306,1456014477.26199007034301757812,80584
307,1456014477.31158041954040527344,80136
308,1456014477.36207294464111328125,79656
309,1456014477.41159152984619140625,79168
310,1456014477.46191668510437011719,78664
311,1456014477.51241350173950195312,78136
312,1456014477.56176519393920898438,77608
313,1456014477.61207699775695800781,77048
314,1456014477.66168236732482910156,76488
315,1456014477.71203064918518066406,75904
316,1456014477.76168179512023925781,75320
317,1456014477.81205034255981445312,74712
318,1456014477.8614959716796875,74104
319,1456014477.91191148757934570312,73480
320,1456014477.96125841140747070312,72848
321,1456014478.01167941093444824219,72200
322,1456014478.06216096878051757812,71544
323,1456014478.11182761192321777344,70888
324,1456014478.16218304634094238281,70224
325,1456014478.21158480644226074219,69560
326,1456014478.2620716094970703125,68880
327,1456014478.31160569190979003906,68208
328,1456014478.36191153526306152344,67520
329,1456014478.41237163543701171875,66832
330,1456014478.46172165870666503906,66152
331,1456014478.51209115982055664062,65464
332,1456014478.56171655654907226562,64784
333,1456014478.61196255683898925781,64096
334,1456014478.66147780418395996094,63416
335,1456014478.71185255050659179688,62728
336,1456014478.7623119354248046875,62048
337,1456014478.81156206130981445312,61384
338,1456014478.8620243072509765625,60712
339,1456014478.91126227378845214844,60064
340,1456014478.96164679527282714844,59400
341,1456014479.01102375984191894531,58760
342,1456014479.06128859519958496094,58120
343,1456014479.11180043220520019531,57488
344,1456014479.16222381591796875,56856
345,1456014479.21174764633178710938,56256
346,1456014479.262042999267578125,55656
347,1456014479.31136798858642578125,55080
348,1456014479.36174917221069335938,54504
349,1456014479.41204118728637695312,53936
350,1456014479.46163153648376464844,53400
351,1456014479.51197648048400878906,52864
352,1456014479.56150913238525390625,52360
353,1456014479.61186504364013671875,51856
354,1456014479.66232132911682128906,51368
355,1456014479.71160888671875,50912
356,1456014479.76208066940307617188,50464
357,1456014479.81134057044982910156,50040
358,1456014479.86171865463256835938,49632
359,1456014479.91127920150756835938,49240
360,1456014479.96170592308044433594,48872
361,1456014480.01115942001342773438,48528
362,1456014480.061676025390625,48192
363,1456014480.1121845245361328125,47888
364,1456014480.16142821311950683594,47608
365,1456014480.21198344230651855469,47336
366,1456014480.26119184494018554688,47104
367,1456014480.31159043312072753906,46880
368,1456014480.36210489273071289062,46680
369,1456014480.41155362129211425781,46512
370,1456014480.46213483810424804688,46360
371,1456014480.51164412498474121094,46240
372,1456014480.5622997283935546875,46136
373,1456014480.6121883392333984375,46056
374,1456014480.66232037544250488281,46008
375,1456014480.71128439903259277344,45976
376,1456014480.76117205619812011719,45968
377,1456014480.81114697456359863281,45984
378,1456014480.86204457283020019531,46024
379,1456014480.91126537322998046875,46088
380,1456014480.96154260635375976562,46184
381,1456014481.01187801361083984375,46296
382,1456014481.06196880340576171875,46432
383,1456014481.11231589317321777344,46592
384,1456014481.16142773628234863281,46776
385,1456014481.21149468421936035156,46976
386,1456014481.26177000999450683594,47208
387,1456014481.3118228912353515625,47456
388,1456014481.36210751533508300781,47736
389,1456014481.41106581687927246094,48024
390,1456014481.46218895912170410156,48344
391,1456014481.51115942001342773438,48680
392,1456014481.56133365631103515625,49040
393,1456014481.61150574684143066406,49416
394,1456014481.66165566444396972656,49816
395,1456014481.71186900138854980469,50232
396,1456014481.76191401481628417969,50672
397,1456014481.8110370635986328125,51120
398,1456014481.86222290992736816406,51600
399,1456014481.91177010536193847656,52088
400,1456014481.96181917190551757812,52592
401,1456014482.01202821731567382812,53120
402,1456014482.06211209297180175781,53656
403,1456014482.1121540069580078125,54208
404,1456014482.16145873069763183594,54760
405,1456014482.21158933639526367188,55344
406,1456014482.26197361946105957031,55936
407,1456014482.31210350990295410156,56544
408,1456014482.36236405372619628906,57160
409,1456014482.41151165962219238281,57776
410,1456014482.46174073219299316406,58408
411,1456014482.51192951202392578125,59056
412,1456014482.56206250190734863281,59712
413,1456014482.61133623123168945312,60360
414,1456014482.66138935089111328125,61024
415,1456014482.71166920661926269531,61696
416,1456014482.76187849044799804688,62376
417,1456014482.82395148277282714844,63216
418,1456014482.86110281944274902344,63720
419,1456014482.91141796112060546875,64408
420,1456014482.96145677566528320312,65096
421,1456014483.011516571044921875,65784
422,1456014483.06187391281127929688,66480
423,1456014483.11199283599853515625,67160
424,1456014483.16122317314147949219,67832
425,1456014483.21135997772216796875,68520
426,1456014483.26171588897705078125,69200
427,1456014483.31190943717956542969,69872
428,1456014483.36215972900390625,70544
429,1456014483.41123104095458984375,71192
430,1456014483.461399078369140625,71848
431,1456014483.51166367530822753906,72504
432,1456014483.56170010566711425781,73144
433,1456014483.6118831634521484375,73776
434,1456014483.66193389892578125,74392
435,1456014483.71232485771179199219,75008
436,1456014483.76145577430725097656,75592
437,1456014483.81160593032836914062,76184
438,1456014483.86160421371459960938,76752
439,1456014483.91156911849975585938,77312
440,1456014483.96178841590881347656,77856
441,1456014484.01174688339233398438,78392
442,1456014484.06202363967895507812,78904
443,1456014484.11198592185974121094,79400
444,1456014484.16210532188415527344,79888
445,1456014484.2120723724365234375,80352
446,1456014484.26220989227294921875,80792
447,1456014484.31124043464660644531,81216
448,1456014484.36120510101318359375,81624
449,1456014484.41136050224304199219,82016
450,1456014484.46121668815612792969,82384
451,1456014484.51144719123840332031,82736
452,1456014484.56216502189636230469,83064
453,1456014484.61193418502807617188,83368
454,1456014484.66149353981018066406,83656
455,1456014484.71226072311401367188,83920
456,1456014484.76176691055297851562,84160
457,1456014484.81119322776794433594,84376
458,1456014484.86176609992980957031,84568
459,1456014484.91220569610595703125,84744
460,1456014484.96192049980163574219,84896
461,1456014485.0111026763916015625,85016
462,1456014485.06156849861145019531,85120
463,1456014485.11195778846740722656,85200
464,1456014485.16131186485290527344,85248
465,1456014485.21173405647277832031,85280
466,1456014485.26209855079650878906,85288
467,1456014485.31154346466064453125,85272
468,1456014485.36187720298767089844,85232
469,1456014485.41140127182006835938,85168
470,1456014485.46185421943664550781,85072
471,1456014485.51129055023193359375,84960
472,1456014485.56161808967590332031,84824
473,1456014485.61211299896240234375,84664
474,1456014485.66143560409545898438,84480
475,1456014485.71179533004760742188,84280
476,1456014485.76119589805603027344,84048
477,1456014485.81145215034484863281,83800
478,1456014485.86211442947387695312,83520
479,1456014485.91153097152709960938,83232
480,1456014485.9620876312255859375,82912
