id, time (s), size (bits)
0,1456014462.7074489593505859375,45976
1,1456014462.75754714012145996094,45968
2,1456014462.80792260169982910156,45984
3,1456014462.85762357711791992188,46024
4,1456014462.90695023536682128906,46088
5,1456014462.95769095420837402344,46176
6,1456014463.01012849807739257812,46288
7,1456014463.05718517303466796875,46416
8,1456014463.10808420181274414062,46576
9,1456014463.15808773040771484375,46760
10,1456014463.20711278915405273438,46960
11,1456014463.25811219215393066406,47192
12,1456014463.30821347236633300781,47440
13,1456014463.35811281204223632812,47712
14,1456014463.40818142890930175781,48008
15,1456014463.45705723762512207031,48312
16,1456014463.50803160667419433594,48656
17,1456014463.55740833282470703125,49008
18,1456014463.60749769210815429688,49384
19,1456014463.65767431259155273438,49784
20,1456014463.70761942863464355469,50200
21,1456014463.75772833824157714844,50632
22,1456014463.80766820907592773438,51088
23,1456014463.85783743858337402344,51560
24,1456014463.90786480903625488281,52048
25,1456014463.95778489112854003906,52552
26,1456014464.0080108642578125,53072
27,1456014464.05798101425170898438,53608
28,1456014464.10808634757995605469,54160
29,1456014464.15801072120666503906,54728
30,1456014464.20811319351196289062,55304
31,1456014464.25802445411682128906,55896
32,1456014464.30810499191284179688,56496
33,1456014464.35704565048217773438,57096
34,1456014464.40803599357604980469,57728
35,1456014464.4571170806884765625,58352
36,1456014464.50808930397033691406,59008
37,1456014464.55814671516418457031,59656
38,1456014464.60814833641052246094,60312
39,1456014464.65824961662292480469,60984
40,1456014464.70706295967102050781,61632
41,1456014464.75826859474182128906,62328
42,1456014464.80710768699645996094,62984
43,1456014464.85813164710998535156,63680
44,1456014464.90711450576782226562,64352
45,1456014464.95805120468139648438,65048
46,1456014465.00809645652770996094,65736
47,1456014465.05803537368774414062,66424
48,1456014465.10814929008483886719,67112
49,1456014465.15803170204162597656,67792
50,1456014465.20822596549987792969,68472
51,1456014465.25714182853698730469,69136
52,1456014465.30708026885986328125,69808
53,1456014465.35716462135314941406,70480
54,1456014465.40813803672790527344,71152
55,1456014465.45715475082397460938,71792
56,1456014465.50810146331787109375,72456
57,1456014465.55822920799255371094,73096
58,1456014465.60805583000183105469,73728
59,1456014465.65829682350158691406,74352
60,1456014465.70717406272888183594,74944
61,1456014465.75712871551513671875,75544
62,1456014465.80713415145874023438,76128
63,1456014465.85805392265319824219,76712
64,1456014465.90798902511596679688,77272
65,1456014465.95803380012512207031,77816
66,1456014466.00804996490478515625,78352
67,1456014466.05790567398071289062,78864
68,1456014466.10802054405212402344,79360
69,1456014466.15794277191162109375,79848
70,1456014466.20790839195251464844,80312
71,1456014466.25800442695617675781,80760
72,1456014466.30790448188781738281,81184
73,1456014466.35794162750244140625,81600
74,1456014466.40785193443298339844,81984
75,1456014466.45791387557983398438,82360
76,1456014466.50782322883605957031,82704
77,1456014466.5577850341796875,83040
78,1456014466.60813379287719726562,83344
79,1456014466.65760707855224609375,83632
80,1456014466.70708942413330078125,83896
81,1456014466.75785946846008300781,84136
82,1456014466.80753612518310546875,84360
83,1456014466.85781264305114746094,84560
84,1456014466.90835666656494140625,84728
85,1456014466.95760297775268554688,84880
86,1456014467.00812745094299316406,85008
87,1456014467.05752348899841308594,85112
88,1456014467.10790085792541503906,85192
89,1456014467.15715289115905761719,85248
90,1456014467.20761799812316894531,85280
91,1456014467.25801062583923339844,85288
92,1456014467.30707406997680664062,85272
93,1456014467.35773015022277832031,85232
94,1456014467.40802907943725585938,85168
95,1456014467.45832872390747070312,85080
96,1456014467.50778794288635253906,84968
97,1456014467.55803680419921875,84840
98,1456014467.60749912261962890625,84680
99,1456014467.65771460533142089844,84496
100,1456014467.70809221267700195312,84296
101,1456014467.75716924667358398438,84072
102,1456014467.80791521072387695312,83816
103,1456014467.85807299613952636719,83544
104,1456014467.90757918357849121094,83256
105,1456014467.95788168907165527344,82936
106,1456014468.0080852508544921875,82600
107,1456014468.05745601654052734375,82248
108,1456014468.10780501365661621094,81864
109,1456014468.15812826156616210938,81472
110,1456014468.20721125602722167969,81064
111,1456014468.25788116455078125,80616
112,1456014468.30818796157836914062,80168
113,1456014468.35758805274963378906,79696
114,1456014468.407917022705078125,79208
115,1456014468.45804309844970703125,78704
116,1456014468.50745892524719238281,78184
117,1456014468.55776071548461914062,77648
118,1456014468.60809254646301269531,77096
119,1456014468.65709614753723144531,76544
120,1456014468.707881927490234375,75952
121,1456014468.7580814361572265625,75360
122,1456014468.80738973617553710938,74768
123,1456014468.85759043693542480469,74152
124,1456014468.90804958343505859375,73528
125,1456014468.95751905441284179688,72896
126,1456014469.00783419609069824219,72256
127,1456014469.05717563629150390625,71608
128,1456014469.10768198966979980469,70944
129,1456014469.15769410133361816406,70280
130,1456014469.20799756050109863281,69608
131,1456014469.25825095176696777344,68928
132,1456014469.30753874778747558594,68264
133,1456014469.35782194137573242188,67576
134,1456014469.40816497802734375,66888
135,1456014469.45716786384582519531,66216
136,1456014469.50779080390930175781,65520
137,1456014469.55804133415222167969,64832
138,1456014469.60741186141967773438,64160
139,1456014469.65767216682434082031,63472
140,1456014469.70805239677429199219,62784
141,1456014469.75711107254028320312,62120
142,1456014469.807468414306640625,61440
143,1456014469.85785460472106933594,60768
144,1456014469.90806841850280761719,60104
145,1456014469.95756053924560546875,59456
146,1456014470.00785517692565917969,58800
147,1456014470.05819010734558105469,58160
148,1456014470.10720181465148925781,57544
149,1456014470.15770196914672851562,56912
150,1456014470.20799899101257324219,56304
151,1456014470.25816249847412109375,55704
152,1456014470.30759191513061523438,55120
153,1456014470.35785961151123046875,54544
154,1456014470.40719318389892578125,53992
155,1456014470.45749711990356445312,53440
156,1456014470.50791668891906738281,52904
157,1456014470.55808186531066894531,52392
158,1456014470.60738587379455566406,51896
159,1456014470.65769100189208984375,51416
160,1456014470.70792746543884277344,50944
161,1456014470.75713133811950683594,50504
162,1456014470.80748724937438964844,50072
163,1456014470.85793256759643554688,49656
164,1456014470.90806937217712402344,49264
165,1456014470.95736837387084960938,48904
166,1456014471.00767564773559570312,48552
167,1456014471.05808758735656738281,48216
168,1456014471.10722994804382324219,47912
169,1456014471.15761208534240722656,47624
170,1456014471.20715546607971191406,47360
171,1456014471.25753736495971679688,47120
172,1456014471.30790805816650390625,46896
173,1456014471.3580799102783203125,46696
174,1456014471.4073944091796875,46528
175,1456014471.45788145065307617188,46376
176,1456014471.50733447074890136719,46248
177,1456014471.55784511566162109375,46144
178,1456014471.60760045051574707031,46064
179,1456014471.65774559974670410156,46008
180,1456014471.70755147933959960938,45976
181,1456014471.75752854347229003906,45968
182,1456014471.80717182159423828125,45984
183,1456014471.85821008682250976562,46024
184,1456014471.90802359580993652344,46088
185,1456014471.95807361602783203125,46176
186,1456014472.0080165863037109375,46288
187,1456014472.05795383453369140625,46416
188,1456014472.10705208778381347656,46576
189,1456014472.15802669525146484375,46760
190,1456014472.20813822746276855469,46960
191,1456014472.25803089141845703125,47192
192,1456014472.30813479423522949219,47440
193,1456014472.35798406600952148438,47712
194,1456014472.40807461738586425781,48008
195,1456014472.45807218551635742188,48320
196,1456014472.50803112983703613281,48656
197,1456014472.55710363388061523438,49008
198,1456014472.60707068443298339844,49384
199,1456014472.65708518028259277344,49776
200,1456014472.70804858207702636719,50200
201,1456014472.75815868377685546875,50640
202,1456014472.80816435813903808594,51088
203,1456014472.85834360122680664062,51568
204,1456014472.907360076904296875,52040
205,1456014472.95735645294189453125,52544
206,1456014473.00753092765808105469,53072
207,1456014473.05750751495361328125,53608
208,1456014473.10760569572448730469,54152
209,1456014473.15774822235107421875,54720
210,1456014473.20789432525634765625,55304
211,1456014473.25787878036499023438,55888
212,1456014473.30815553665161132812,56496
213,1456014473.35808205604553222656,57112
214,1456014473.40799927711486816406,57728
215,1456014473.45714497566223144531,58352
216,1456014473.50712823867797851562,58992
217,1456014473.55719470977783203125,59648
218,1456014473.60711646080017089844,60304
219,1456014473.65825009346008300781,60984
220,1456014473.70813012123107910156,61648
221,1456014473.75826287269592285156,62328
222,1456014473.80710721015930175781,62984
223,1456014473.85810685157775878906,63680
224,1456014473.90710854530334472656,64352
225,1456014473.95803427696228027344,65048
226,1456014474.0080966949462890625,65736
227,1456014474.05806398391723632812,66424
228,1456014474.10822343826293945312,67112
229,1456014474.15703749656677246094,67776
230,1456014474.20828652381896972656,68472
231,1456014474.25715541839599609375,69136
232,1456014474.30813765525817871094,69824
233,1456014474.35712838172912597656,70480
234,1456014474.40809988975524902344,71152
235,1456014474.45709347724914550781,71792
236,1456014474.50807118415832519531,72456
237,1456014474.55818128585815429688,73096
238,1456014474.60805583000183105469,73728
239,1456014474.65843033790588378906,74352
240,1456014474.70770144462585449219,74952
241,1456014474.75799465179443359375,75552
242,1456014474.80709385871887207031,76128
243,1456014474.85802435874938964844,76712
244,1456014474.90804147720336914062,77272
245,1456014474.95796251296997070312,77816
246,1456014475.00816011428833007812,78352
247,1456014475.0580463409423828125,78864
248,1456014475.10805249214172363281,79368
249,1456014475.15793061256408691406,79848
250,1456014475.20774745941162109375,80312
251,1456014475.25791025161743164062,80760
252,1456014475.30784630775451660156,81184
253,1456014475.35787200927734375,81600
254,1456014475.40777063369750976562,81984
255,1456014475.45806932449340820312,82360
256,1456014475.50801539421081542969,82712
257,1456014475.55772876739501953125,83040
258,1456014475.60810828208923339844,83344
259,1456014475.657627105712890625,83632
260,1456014475.70717382431030273438,83896
261,1456014475.75813364982604980469,84144
262,1456014475.80761051177978515625,84360
263,1456014475.85795450210571289062,84560
264,1456014475.90832924842834472656,84728
265,1456014475.957637786865234375,84880
266,1456014476.00805330276489257812,85008
267,1456014476.05717992782592773438,85112
268,1456014476.10764026641845703125,85192
269,1456014476.158084869384765625,85248
270,1456014476.20720767974853515625,85280
271,1456014476.25779461860656738281,85288
272,1456014476.30800938606262207031,85272
273,1456014476.35844826698303222656,85232
274,1456014476.407695770263671875,85168
275,1456014476.45806765556335449219,85080
276,1456014476.50714731216430664062,84976
277,1456014476.55752086639404296875,84840
278,1456014476.60792708396911621094,84680
279,1456014476.65808057785034179688,84496
280,1456014476.70744752883911132812,84296
281,1456014476.75774288177490234375,84064
282,1456014476.80830216407775878906,83816
283,1456014476.85751008987426757812,83544
284,1456014476.90796685218811035156,83248
285,1456014476.95706701278686523438,82944
286,1456014477.00744557380676269531,82600
287,1456014477.0578403472900390625,82248
288,1456014477.10802412033081054688,81864
289,1456014477.15762162208557128906,81472
290,1456014477.20803046226501464844,81056
291,1456014477.25737595558166503906,80624
292,1456014477.30768585205078125,80168
293,1456014477.35805463790893554688,79696
294,1456014477.40713953971862792969,79216
295,1456014477.45746493339538574219,78704
296,1456014477.50787854194641113281,78184
297,1456014477.55807948112487792969,77648
298,1456014477.60757422447204589844,77104
299,1456014477.65779566764831542969,76536
300,1456014477.70825743675231933594,75952
301,1456014477.75750255584716796875,75368
302,1456014477.80797529220581054688,74760
303,1456014477.858150482177734375,74144
304,1456014477.90721058845520019531,73536
305,1456014477.95774078369140625,72896
306,1456014478.00795841217041015625,72248
307,1456014478.05758762359619140625,71608
308,1456014478.10804486274719238281,70944
309,1456014478.15745568275451660156,70288
310,1456014478.20780229568481445312,69608
311,1456014478.25824761390686035156,68928
312,1456014478.30758070945739746094,68264
313,1456014478.3578472137451171875,67576
314,1456014478.40707802772521972656,66904
315,1456014478.45724582672119140625,66216
316,1456014478.5078487396240234375,65520
317,1456014478.558078765869140625,64832
318,1456014478.60738110542297363281,64160
319,1456014478.65761017799377441406,63472
320,1456014478.7079792022705078125,62784
321,1456014478.758152008056640625,62104
322,1456014478.80717611312866210938,61448
323,1456014478.85766744613647460938,60768
324,1456014478.90792512893676757812,60104
325,1456014478.95746302604675292969,59456
326,1456014479.00772428512573242188,58808
327,1456014479.05818629264831542969,58160
328,1456014479.10742688179016113281,57536
329,1456014479.15775609016418457031,56912
330,1456014479.20813059806823730469,56304
331,1456014479.2570934295654296875,55712
332,1456014479.30769896507263183594,55120
333,1456014479.35787677764892578125,54544
334,1456014479.40707182884216308594,53992
335,1456014479.457218170166015625,53448
336,1456014479.50771379470825195312,52912
337,1456014479.55795216560363769531,52392
338,1456014479.60827040672302246094,51888
339,1456014479.65752863883972167969,51416
340,1456014479.70782327651977539062,50944
341,1456014479.75713086128234863281,50504
342,1456014479.80742478370666503906,50072
343,1456014479.85779905319213867188,49656
344,1456014479.9080352783203125,49264
345,1456014479.95741391181945800781,48904
346,1456014480.00771498680114746094,48552
347,1456014480.05801844596862792969,48216
348,1456014480.108158111572265625,47912
349,1456014480.15715861320495605469,47624
350,1456014480.20777273178100585938,47360
351,1456014480.25798177719116210938,47120
352,1456014480.30718994140625,46896
353,1456014480.35750269889831542969,46704
354,1456014480.40790915489196777344,46528
355,1456014480.45715737342834472656,46376
356,1456014480.50791382789611816406,46248
357,1456014480.55718064308166503906,46144
358,1456014480.6081180572509765625,46064
359,1456014480.65815711021423339844,46008
360,1456014480.70795202255249023438,45976
361,1456014480.75789570808410644531,45968
362,1456014480.80767560005187988281,45984
363,1456014480.85768556594848632812,46024
364,1456014480.90761208534240722656,46088
365,1456014480.9577732086181640625,46176
366,1456014481.00777173042297363281,46288
367,1456014481.05780196189880371094,46416
368,1456014481.10800886154174804688,46576
369,1456014481.157985687255859375,46760
370,1456014481.2081012725830078125,46960
371,1456014481.25803923606872558594,47192
372,1456014481.30815029144287109375,47440
373,1456014481.35801959037780761719,47712
374,1456014481.40817761421203613281,48008
375,1456014481.45813083648681640625,48320
376,1456014481.50805401802062988281,48656
377,1456014481.55813241004943847656,49016
378,1456014481.60800957679748535156,49392
379,1456014481.658023834228515625,49784
380,1456014481.7079181671142578125,50200
381,1456014481.75807356834411621094,50640
382,1456014481.80802607536315917969,51088
383,1456014481.85824537277221679688,51560
384,1456014481.9071102142333984375,52040
385,1456014481.95813465118408203125,52552
386,1456014482.00707745552062988281,53064
387,1456014482.05802035331726074219,53608
388,1456014482.10802960395812988281,54160
389,1456014482.15797567367553710938,54720
390,1456014482.20822668075561523438,55304
391,1456014482.25712680816650390625,55880
392,1456014482.30836462974548339844,56496
393,1456014482.35740184783935546875,57096
394,1456014482.4072093963623046875,57720
395,1456014482.45744371414184570312,58360
396,1456014482.50743818283081054688,59000
397,1456014482.55758762359619140625,59648
398,1456014482.60757422447204589844,60304
399,1456014482.65787172317504882812,60976
400,1456014482.70785999298095703125,61648
401,1456014482.75802135467529296875,62320
402,1456014482.80808949470520019531,63000
403,1456014482.85809230804443359375,63680
404,1456014482.907070159912109375,64352
405,1456014482.95804333686828613281,65048
406,1456014483.00811600685119628906,65736
407,1456014483.0581607818603515625,66424
408,1456014483.10840153694152832031,67112
409,1456014483.15745401382446289062,67784
410,1456014483.20771121978759765625,68472
411,1456014483.25787758827209472656,69144
412,1456014483.30797314643859863281,69824
413,1456014483.35808920860290527344,70488
414,1456014483.40805387496948242188,71152
415,1456014483.45818018913269042969,71808
416,1456014483.50814032554626464844,72456
417,1456014483.55837249755859375,73096
418,1456014483.60713839530944824219,73712
419,1456014483.65819954872131347656,74344
420,1456014483.70805072784423828125,74952
421,1456014483.75801777839660644531,75552
422,1456014483.80802893638610839844,76136
423,1456014483.85786175727844238281,76712
424,1456014483.90787553787231445312,77272
425,1456014483.957691192626953125,77816
426,1456014484.00785136222839355469,78344
427,1456014484.057811737060546875,78864
428,1456014484.1079082489013671875,79360
429,1456014484.15780043601989746094,79848
430,1456014484.20769071578979492188,80312
431,1456014484.25773072242736816406,80760
432,1456014484.30757880210876464844,81184
433,1456014484.35757994651794433594,81592
434,1456014484.40745949745178222656,81984
435,1456014484.45750784873962402344,82352
436,1456014484.50747561454772949219,82704
437,1456014484.55741906166076660156,83032
438,1456014484.60720086097717285156,83344
439,1456014484.65711069107055664062,83632
440,1456014484.70709300041198730469,83896
441,1456014484.75764942169189453125,84136
442,1456014484.80718183517456054688,84360
443,1456014484.85774827003479003906,84552
444,1456014484.90837264060974121094,84736
445,1456014484.95787000656127929688,84880
446,1456014485.00736975669860839844,85008
447,1456014485.05769395828247070312,85112
448,1456014485.10797619819641113281,85192
449,1456014485.15714240074157714844,85248
450,1456014485.20750355720520019531,85280
451,1456014485.25801944732666015625,85288
452,1456014485.30710911750793457031,85272
453,1456014485.35763835906982421875,85232
454,1456014485.40801739692687988281,85168
455,1456014485.45837569236755371094,85080
456,1456014485.50767445564270019531,84968
457,1456014485.55796670913696289062,84840
458,1456014485.60748457908630371094,84680
459,1456014485.65780806541442871094,84496
460,1456014485.70715594291687011719,84296
461,1456014485.75746488571166992188,84072
462,1456014485.80791258811950683594,83816
463,1456014485.85809659957885742188,83544
464,1456014485.90740489959716796875,83256
465,1456014485.957752227783203125,82936
466,1456014486.00800085067749023438,82600
467,1456014486.05761981010437011719,82248
468,1456014486.10800099372863769531,81864
469,1456014486.15751862525939941406,81472
470,1456014486.20788240432739257812,81056
471,1456014486.25830626487731933594,80616
472,1456014486.30755686759948730469,80168
473,1456014486.35803532600402832031,79696
474,1456014486.407108306884765625,79216
475,1456014486.45748472213745117188,78704
476,1456014486.50791668891906738281,78184
477,1456014486.55710744857788085938,77656
478,1456014486.60781645774841308594,77096
479,1456014486.65801143646240234375,76528
