id, time (s), size (bits)
0,1456014461.88712787628173828125,49432
1,1456014461.93717479705810546875,49048
2,1456014461.98755717277526855469,48688
3,1456014462.03722238540649414062,48352
4,1456014462.08766794204711914062,48032
5,1456014462.13720369338989257812,47736
6,1456014462.18765139579772949219,47464
7,1456014462.23683476448059082031,47216
8,1456014462.28719997406005859375,46984
9,1456014462.33724641799926757812,46776
10,1456014462.38735485076904296875,46592
11,1456014462.43727827072143554688,46432
12,1456014462.48734712600708007812,46296
13,1456014462.53727936744689941406,46184
14,1456014462.58736658096313476562,46096
15,1456014462.63730096817016601562,46032
16,1456014462.68713450431823730469,45984
17,1456014462.73746228218078613281,45968
18,1456014462.78742122650146484375,45976
19,1456014462.83758306503295898438,46000
20,1456014462.88747358322143554688,46056
21,1456014462.93762350082397460938,46136
22,1456014462.98751807212829589844,46240
23,1456014463.03762197494506835938,46360
24,1456014463.08757042884826660156,46512
25,1456014463.13757348060607910156,46680
26,1456014463.18775391578674316406,46880
27,1456014463.23760724067687988281,47096
28,1456014463.28763246536254882812,47336
29,1456014463.33755326271057128906,47600
30,1456014463.38762235641479492188,47880
31,1456014463.43757033348083496094,48192
32,1456014463.4876232147216796875,48520
33,1456014463.53768110275268554688,48864
34,1456014463.58756327629089355469,49232
35,1456014463.63768792152404785156,49624
36,1456014463.687549591064453125,50032
37,1456014463.73759341239929199219,50456
38,1456014463.78747510910034179688,50904
39,1456014463.83756542205810546875,51368
40,1456014463.88746476173400878906,51848
41,1456014463.93762087821960449219,52344
42,1456014463.98759627342224121094,52856
43,1456014464.03760695457458496094,53392
44,1456014464.08769273757934570312,53936
45,1456014464.1375865936279296875,54496
46,1456014464.18761849403381347656,55064
47,1456014464.23750662803649902344,55648
48,1456014464.28756189346313476562,56248
49,1456014464.33745336532592773438,56856
50,1456014464.38759708404541015625,57472
51,1456014464.43756842613220214844,58104
52,1456014464.48747968673706054688,58744
53,1456014464.537578582763671875,59392
54,1456014464.58751201629638671875,60040
55,1456014464.63765168190002441406,60704
56,1456014464.68758177757263183594,61376
57,1456014464.73767638206481933594,62048
58,1456014464.78757834434509277344,62720
59,1456014464.83772540092468261719,63408
60,1456014464.8876438140869140625,64088
61,1456014464.93755412101745605469,64768
62,1456014464.98760271072387695312,65456
63,1456014465.03752803802490234375,66144
64,1456014465.08759284019470214844,66832
65,1456014465.13773608207702636719,67512
66,1456014465.18778777122497558594,68200
67,1456014465.23764324188232421875,68872
68,1456014465.28783893585205078125,69552
69,1456014465.337810516357421875,70224
70,1456014465.38766026496887207031,70880
71,1456014465.43775510787963867188,71544
72,1456014465.48760890960693359375,72192
73,1456014465.53769183158874511719,72832
74,1456014465.5875759124755859375,73464
75,1456014465.63769173622131347656,74096
76,1456014465.68761992454528808594,74704
77,1456014465.73774790763854980469,75312
78,1456014465.7877559661865234375,75904
79,1456014465.83763480186462402344,76480
80,1456014465.88762950897216796875,77048
81,1456014465.93743944168090820312,77592
82,1456014465.98743486404418945312,78136
83,1456014466.03724431991577148438,78656
84,1456014466.08722186088562011719,79160
85,1456014466.13692378997802734375,79648
86,1456014466.18789649009704589844,80128
87,1456014466.2376804351806640625,80576
88,1456014466.28755164146423339844,81016
89,1456014466.33756470680236816406,81432
90,1456014466.38743185997009277344,81832
91,1456014466.43746042251586914062,82208
92,1456014466.48730421066284179688,82568
93,1456014466.53744006156921386719,82904
94,1456014466.5878467559814453125,83224
95,1456014466.63743424415588378906,83520
96,1456014466.68781065940856933594,83792
97,1456014466.73727130889892578125,84040
98,1456014466.78785371780395507812,84272
99,1456014466.83721637725830078125,84480
100,1456014466.88765382766723632812,84664
101,1456014466.93680787086486816406,84824
102,1456014466.98751759529113769531,84960
103,1456014467.03769707679748535156,85072
104,1456014467.08804821968078613281,85160
105,1456014467.137378692626953125,85224
106,1456014467.18761372566223144531,85272
107,1456014467.2368068695068359375,85288
108,1456014467.28719401359558105469,85280
109,1456014467.33765077590942382812,85256
110,1456014467.38782238960266113281,85200
111,1456014467.43717885017395019531,85120
112,1456014467.48752069473266601562,85016
113,1456014467.53782057762145996094,84896
114,1456014467.58703327178955078125,84744
115,1456014467.63721728324890136719,84576
116,1456014467.68758153915405273438,84376
117,1456014467.73771572113037109375,84160
118,1456014467.78707289695739746094,83920
119,1456014467.83731031417846679688,83656
120,1456014467.88778424263000488281,83376
121,1456014467.93682909011840820312,83072
122,1456014467.98733401298522949219,82744
123,1456014468.03750276565551757812,82392
124,1456014468.08769345283508300781,82024
125,1456014468.13697266578674316406,81640
126,1456014468.18724036216735839844,81232
127,1456014468.237720489501953125,80800
128,1456014468.28696513175964355469,80360
129,1456014468.337894439697265625,79888
130,1456014468.38702034950256347656,79416
131,1456014468.43736886978149414062,78912
132,1456014468.48761224746704101562,78400
133,1456014468.53776001930236816406,77864
134,1456014468.58718061447143554688,77328
135,1456014468.63736486434936523438,76768
136,1456014468.68786096572875976562,76192
137,1456014468.73694133758544921875,75616
138,1456014468.78739261627197265625,75008
139,1456014468.83750939369201660156,74400
140,1456014468.88780426979064941406,73776
141,1456014468.93684816360473632812,73160
142,1456014468.98717570304870605469,72520
143,1456014469.03759765625,71864
144,1456014469.08775186538696289062,71208
145,1456014469.13725709915161132812,70552
146,1456014469.18750715255737304688,69888
147,1456014469.23776745796203613281,69208
148,1456014469.28784823417663574219,68528
149,1456014469.33708715438842773438,67864
150,1456014469.38737368583679199219,67176
151,1456014469.43753552436828613281,66488
152,1456014469.4878292083740234375,65792
153,1456014469.53691887855529785156,65120
154,1456014469.58746004104614257812,64432
155,1456014469.63782215118408203125,63744
156,1456014469.6872844696044921875,63064
157,1456014469.73763442039489746094,62384
158,1456014469.78798413276672363281,61704
159,1456014469.83714699745178222656,61040
160,1456014469.88734340667724609375,60376
161,1456014469.93765807151794433594,59712
162,1456014469.98786091804504394531,59064
163,1456014470.03728199005126953125,58424
164,1456014470.08749747276306152344,57792
165,1456014470.13782715797424316406,57160
166,1456014470.18692636489868164062,56560
167,1456014470.2372341156005859375,55952
168,1456014470.28749871253967285156,55360
169,1456014470.33765363693237304688,54776
170,1456014470.38716983795166015625,54216
171,1456014470.43734478950500488281,53664
172,1456014470.4876537322998046875,53120
173,1456014470.537807464599609375,52600
174,1456014470.58712673187255859375,52096
175,1456014470.6373882293701171875,51608
176,1456014470.68775343894958496094,51128
177,1456014470.73677945137023925781,50688
178,1456014470.78699326515197753906,50248
179,1456014470.83743524551391601562,49824
180,1456014470.88759541511535644531,49424
181,1456014470.93678021430969238281,49056
182,1456014470.98699212074279785156,48688
183,1456014471.03740358352661132812,48352
184,1456014471.08762192726135253906,48032
185,1456014471.13793325424194335938,47736
186,1456014471.18721866607666015625,47464
187,1456014471.23743391036987304688,47216
188,1456014471.28788018226623535156,46984
189,1456014471.33694338798522949219,46776
190,1456014471.38736557960510253906,46592
191,1456014471.43771314620971679688,46432
192,1456014471.48712635040283203125,46296
193,1456014471.53755092620849609375,46184
194,1456014471.58744025230407714844,46096
195,1456014471.63718938827514648438,46032
196,1456014471.68784499168395996094,45984
197,1456014471.73776578903198242188,45968
198,1456014471.78755521774291992188,45976
199,1456014471.8375186920166015625,46000
200,1456014471.88733577728271484375,46056
201,1456014471.93741846084594726562,46136
202,1456014471.98727059364318847656,46240
203,1456014472.03750586509704589844,46360
204,1456014472.08755445480346679688,46512
205,1456014472.13748192787170410156,46680
206,1456014472.18755650520324707031,46880
207,1456014472.23752546310424804688,47096
208,1456014472.28761816024780273438,47336
209,1456014472.33748960494995117188,47600
210,1456014472.38753581047058105469,47880
211,1456014472.43741917610168457031,48184
212,1456014472.48757791519165039062,48520
213,1456014472.53752899169921875,48864
214,1456014472.58739781379699707031,49232
215,1456014472.63749265670776367188,49624
216,1456014472.68737053871154785156,50032
217,1456014472.7374897003173828125,50456
218,1456014472.78753924369812011719,50904
219,1456014472.83769178390502929688,51368
220,1456014472.88758611679077148438,51848
221,1456014472.9377231597900390625,52344
222,1456014472.98761653900146484375,52856
223,1456014473.03752875328063964844,53392
224,1456014473.0875701904296875,53936
225,1456014473.13746547698974609375,54488
226,1456014473.18753147125244140625,55064
227,1456014473.23741865158081054688,55648
228,1456014473.28752589225769042969,56248
229,1456014473.33747839927673339844,56856
230,1456014473.38760089874267578125,57472
231,1456014473.43758273124694824219,58104
232,1456014473.48754072189331054688,58744
233,1456014473.53767609596252441406,59392
234,1456014473.58756971359252929688,60048
235,1456014473.63760828971862792969,60704
236,1456014473.68750905990600585938,61368
237,1456014473.73756146430969238281,62048
238,1456014473.78746700286865234375,62720
239,1456014473.83765077590942382812,63400
240,1456014473.88761591911315917969,64088
241,1456014473.93752217292785644531,64768
242,1456014473.98757457733154296875,65456
243,1456014474.03759741783142089844,66144
244,1456014474.0876750946044921875,66832
245,1456014474.1376056671142578125,67512
246,1456014474.18779993057250976562,68200
247,1456014474.23763012886047363281,68872
248,1456014474.28768825531005859375,69552
249,1456014474.33761906623840332031,70216
250,1456014474.38755178451538085938,70880
251,1456014474.43763017654418945312,71544
252,1456014474.48757147789001464844,72192
253,1456014474.53764033317565917969,72832
254,1456014474.58750605583190917969,73464
255,1456014474.63772916793823242188,74096
256,1456014474.68763875961303710938,74704
257,1456014474.73762941360473632812,75312
258,1456014474.78764820098876953125,75904
259,1456014474.83750295639038085938,76480
260,1456014474.88761210441589355469,77048
261,1456014474.93755865097045898438,77600
262,1456014474.98761725425720214844,78136
263,1456014475.03752398490905761719,78656
264,1456014475.08765721321105957031,79160
265,1456014475.13749861717224121094,79648
266,1456014475.18747591972351074219,80120
267,1456014475.23730897903442382812,80576
268,1456014475.28702616691589355469,81008
269,1456014475.33715081214904785156,81432
270,1456014475.38681840896606445312,81824
271,1456014475.43784570693969726562,82208
272,1456014475.48765969276428222656,82568
273,1456014475.53782725334167480469,82904
274,1456014475.587306976318359375,83224
275,1456014475.63783311843872070312,83520
276,1456014475.68714356422424316406,83792
277,1456014475.73761081695556640625,84040
278,1456014475.787212371826171875,84272
279,1456014475.83759522438049316406,84480
280,1456014475.88786029815673828125,84664
281,1456014475.93697214126586914062,84824
282,1456014475.987548828125,84960
283,1456014476.03768563270568847656,85072
284,1456014476.08800864219665527344,85160
285,1456014476.1372852325439453125,85224
286,1456014476.18760800361633300781,85272
287,1456014476.2368316650390625,85288
288,1456014476.28718972206115722656,85280
289,1456014476.3376674652099609375,85256
290,1456014476.38783931732177734375,85200
291,1456014476.4370784759521484375,85120
292,1456014476.48732423782348632812,85016
293,1456014476.53769707679748535156,84896
294,1456014476.58680057525634765625,84752
295,1456014476.6369476318359375,84576
296,1456014476.68731427192687988281,84376
297,1456014476.73750400543212890625,84160
298,1456014476.78694105148315429688,83928
299,1456014476.83717513084411621094,83664
300,1456014476.88758254051208496094,83376
301,1456014476.93776297569274902344,83064
302,1456014476.98709058761596679688,82744
303,1456014477.03732013702392578125,82392
304,1456014477.08751058578491210938,82024
305,1456014477.13782453536987304688,81632
306,1456014477.186939239501953125,81232
307,1456014477.23750638961791992188,80800
308,1456014477.28771471977233886719,80352
309,1456014477.33806657791137695312,79888
310,1456014477.38730740547180175781,79408
311,1456014477.43766188621520996094,78912
312,1456014477.48781681060791015625,78392
313,1456014477.53694629669189453125,77872
314,1456014477.58740782737731933594,77328
315,1456014477.63753247261047363281,76768
316,1456014477.68678712844848632812,76200
317,1456014477.7370471954345703125,75616
318,1456014477.78753709793090820312,75008
319,1456014477.83763098716735839844,74400
320,1456014477.88789248466491699219,73776
321,1456014477.93713307380676269531,73160
322,1456014477.98736143112182617188,72512
323,1456014478.03777003288269042969,71864
324,1456014478.08704328536987304688,71216
325,1456014478.13749074935913085938,70552
326,1456014478.18765687942504882812,69880
327,1456014478.23795413970947265625,69208
328,1456014478.28722524642944335938,68536
329,1456014478.33764290809631347656,67856
330,1456014478.38781595230102539062,67168
331,1456014478.43677592277526855469,66496
332,1456014478.487422943115234375,65800
333,1456014478.53766560554504394531,65112
334,1456014478.5868473052978515625,64440
335,1456014478.63711333274841308594,63752
336,1456014478.68748545646667480469,63064
337,1456014478.73764491081237792969,62384
338,1456014478.78789591789245605469,61704
339,1456014478.83693742752075195312,61048
340,1456014478.88715410232543945312,60376
341,1456014478.93761515617370605469,59712
342,1456014478.9877166748046875,59064
343,1456014479.03692722320556640625,58432
344,1456014479.08717799186706542969,57792
345,1456014479.1376132965087890625,57160
346,1456014479.18772959709167480469,56544
347,1456014479.23792791366577148438,55944
348,1456014479.28710865974426269531,55360
349,1456014479.3373317718505859375,54776
350,1456014479.38771581649780273438,54208
351,1456014479.43780040740966796875,53656
352,1456014479.48715686798095703125,53128
353,1456014479.53738713264465332031,52600
354,1456014479.58775639533996582031,52096
355,1456014479.63791179656982421875,51600
356,1456014479.68729519844055175781,51136
357,1456014479.73755121231079101562,50680
358,1456014479.78765082359313964844,50240
359,1456014479.83708143234252929688,49824
360,1456014479.88733768463134765625,49424
361,1456014479.93767714500427246094,49048
362,1456014479.98781561851501464844,48688
363,1456014480.03705668449401855469,48352
364,1456014480.08729529380798339844,48032
365,1456014480.1377239227294921875,47736
366,1456014480.18787693977355957031,47464
367,1456014480.23702645301818847656,47216
368,1456014480.28746366500854492188,46984
369,1456014480.33763194084167480469,46776
370,1456014480.38677310943603515625,46600
371,1456014480.43731141090393066406,46432
372,1456014480.48787045478820800781,46296
373,1456014480.53730821609497070312,46184
374,1456014480.5871944427490234375,46096
375,1456014480.63698792457580566406,46032
376,1456014480.687763214111328125,45984
377,1456014480.73760867118835449219,45968
378,1456014480.78736400604248046875,45976
379,1456014480.83728671073913574219,46000
380,1456014480.88708806037902832031,46056
381,1456014480.93699145317077636719,46136
382,1456014480.98776960372924804688,46240
383,1456014481.037929534912109375,46360
384,1456014481.08679652214050292969,46504
385,1456014481.13776230812072753906,46680
386,1456014481.1878032684326171875,46880
387,1456014481.23763966560363769531,47096
388,1456014481.28768229484558105469,47336
389,1456014481.33754611015319824219,47600
390,1456014481.38756442070007324219,47880
391,1456014481.43748497962951660156,48192
392,1456014481.48761463165283203125,48520
393,1456014481.53757762908935546875,48864
394,1456014481.58745503425598144531,49232
395,1456014481.637523651123046875,49624
396,1456014481.68745875358581542969,50032
397,1456014481.73748469352722167969,50456
398,1456014481.78741931915283203125,50904
399,1456014481.83777737617492675781,51368
400,1456014481.88769006729125976562,51848
401,1456014481.93775987625122070312,52344
402,1456014481.98765277862548828125,52864
403,1456014482.03753447532653808594,53392
404,1456014482.08758640289306640625,53936
405,1456014482.13746428489685058594,54488
406,1456014482.18751955032348632812,55064
407,1456014482.23749899864196777344,55648
408,1456014482.28778004646301269531,56248
409,1456014482.3376007080078125,56856
410,1456014482.38768029212951660156,57480
411,1456014482.43765187263488769531,58104
412,1456014482.487606048583984375,58744
413,1456014482.53766536712646484375,59392
414,1456014482.58755970001220703125,60040
415,1456014482.63761186599731445312,60704
416,1456014482.68749690055847167969,61368
417,1456014482.73779320716857910156,62048
418,1456014482.78786110877990722656,62728
419,1456014482.83798551559448242188,63408
420,1456014482.88681149482727050781,64072
421,1456014482.93772006034851074219,64776
422,1456014482.98776292800903320312,65456
423,1456014483.03762888908386230469,66144
424,1456014483.08765554428100585938,66832
425,1456014483.13761234283447265625,67512
426,1456014483.1878299713134765625,68200
427,1456014483.23773074150085449219,68872
428,1456014483.28780150413513183594,69552
429,1456014483.3377552032470703125,70224
430,1456014483.3876323699951171875,70880
431,1456014483.43772602081298828125,71544
432,1456014483.48766756057739257812,72192
433,1456014483.53776693344116210938,72840
434,1456014483.58761477470397949219,73472
435,1456014483.63774895668029785156,74096
436,1456014483.68758535385131835938,74704
437,1456014483.73757219314575195312,75312
438,1456014483.78759407997131347656,75904
439,1456014483.83744645118713378906,76480
440,1456014483.88747286796569824219,77048
441,1456014483.93727469444274902344,77592
442,1456014483.98737478256225585938,78128
443,1456014484.03720831871032714844,78648
444,1456014484.08712530136108398438,79160
445,1456014484.13683390617370605469,79648
446,1456014484.18779277801513671875,80128
447,1456014484.23761606216430664062,80576
448,1456014484.2874355316162109375,81016
449,1456014484.33743953704833984375,81432
450,1456014484.38725805282592773438,81832
451,1456014484.43737769126892089844,82208
452,1456014484.48725414276123046875,82568
453,1456014484.53717446327209472656,82904
454,1456014484.58769536018371582031,83224
455,1456014484.63735532760620117188,83520
456,1456014484.68767428398132324219,83792
457,1456014484.73702263832092285156,84040
458,1456014484.78767418861389160156,84272
459,1456014484.83682560920715332031,84480
460,1456014484.8874607086181640625,84664
461,1456014484.93766069412231445312,84824
462,1456014484.988056182861328125,84960
463,1456014485.03722500801086425781,85072
464,1456014485.08774614334106445312,85160
465,1456014485.13678503036499023438,85224
466,1456014485.18702673912048339844,85272
467,1456014485.23747229576110839844,85288
468,1456014485.28765726089477539062,85280
469,1456014485.33714604377746582031,85256
470,1456014485.38741230964660644531,85200
471,1456014485.43779253959655761719,85120
472,1456014485.48695802688598632812,85024
473,1456014485.53743195533752441406,84896
474,1456014485.58766698837280273438,84744
475,1456014485.63779783248901367188,84576
476,1456014485.68726491928100585938,84384
477,1456014485.73752498626708984375,84160
478,1456014485.78684592247009277344,83928
479,1456014485.83713412284851074219,83664
