id, time (s), size (bits)
0,1456014461.89306735992431640625,49384
1,1456014461.94304227828979492188,49008
2,1456014461.99349546432495117188,48648
3,1456014462.04315209388732910156,48312
4,1456014462.093578338623046875,48000
5,1456014462.14326024055480957031,47704
6,1456014462.19363427162170410156,47432
7,1456014462.24365663528442382812,47184
8,1456014462.29285168647766113281,46960
9,1456014462.34281468391418457031,46760
10,1456014462.39290094375610351562,46576
11,1456014462.44271755218505859375,46416
12,1456014462.49378943443298339844,46280
13,1456014462.54370427131652832031,46168
14,1456014462.59375905990600585938,46088
15,1456014462.64373373985290527344,46024
16,1456014462.6935863494873046875,45984
17,1456014462.74281144142150878906,45968
18,1456014462.79270482063293457031,45976
19,1456014462.843769073486328125,46008
20,1456014462.89362001419067382812,46064
21,1456014462.94373750686645507812,46144
22,1456014462.99364256858825683594,46248
23,1456014463.04378986358642578125,46376
24,1456014463.09369111061096191406,46528
25,1456014463.14361262321472167969,46704
26,1456014463.19277524948120117188,46896
27,1456014463.24370861053466796875,47120
28,1456014463.29275846481323242188,47360
29,1456014463.34373378753662109375,47632
30,1456014463.39378023147583007812,47920
31,1456014463.44368243217468261719,48224
32,1456014463.49376034736633300781,48560
33,1456014463.54270696640014648438,48904
34,1456014463.59363842010498046875,49280
35,1456014463.64276599884033203125,49664
36,1456014463.69367361068725585938,50080
37,1456014463.74370169639587402344,50512
38,1456014463.7935695648193359375,50960
39,1456014463.84361815452575683594,51424
40,1456014463.89348363876342773438,51904
41,1456014463.94363999366760253906,52408
42,1456014463.99358892440795898438,52920
43,1456014464.04352259635925292969,53456
44,1456014464.09365415573120117188,54000
45,1456014464.14352083206176757812,54560
46,1456014464.19358777999877929688,55136
47,1456014464.24348616600036621094,55720
48,1456014464.29363083839416503906,56320
49,1456014464.3435573577880859375,56928
50,1456014464.39367175102233886719,57552
51,1456014464.44362330436706542969,58184
52,1456014464.49354720115661621094,58816
53,1456014464.54367303848266601562,59472
54,1456014464.59369254112243652344,60128
55,1456014464.64280843734741210938,60776
56,1456014464.69375634193420410156,61456
57,1456014464.7438106536865234375,62128
58,1456014464.793743133544921875,62808
59,1456014464.84390521049499511719,63488
60,1456014464.892772674560546875,64160
61,1456014464.94367694854736328125,64856
62,1456014464.99269056320190429688,65528
63,1456014465.04360508918762207031,66224
64,1456014465.0936908721923828125,66912
65,1456014465.1428356170654296875,67584
66,1456014465.19286394119262695312,68264
67,1456014465.24275946617126464844,68944
68,1456014465.29404473304748535156,69632
69,1456014465.3430423736572265625,70288
70,1456014465.39294934272766113281,70952
71,1456014465.44306707382202148438,71616
72,1456014465.49297022819519042969,72264
73,1456014465.54306864738464355469,72904
74,1456014465.59284949302673339844,73536
75,1456014465.64398360252380371094,74168
76,1456014465.69280862808227539062,74768
77,1456014465.74399495124816894531,75384
78,1456014465.79301953315734863281,75968
79,1456014465.84283280372619628906,76536
80,1456014465.89270067214965820312,77104
81,1456014465.94348931312561035156,77664
82,1456014465.99344277381896972656,78192
83,1456014466.04325914382934570312,78712
84,1456014466.09330010414123535156,79216
85,1456014466.14309096336364746094,79704
86,1456014466.193195343017578125,80176
87,1456014466.24311971664428710938,80624
88,1456014466.2929439544677734375,81064
89,1456014466.34301710128784179688,81480
90,1456014466.39276075363159179688,81872
91,1456014466.44374585151672363281,82256
92,1456014466.49349832534790039062,82608
93,1456014466.54359650611877441406,82944
94,1456014466.59306406974792480469,83256
95,1456014466.64381432533264160156,83552
96,1456014466.69323515892028808594,83824
97,1456014466.74373722076416015625,84072
98,1456014466.79334378242492675781,84296
99,1456014466.84372639656066894531,84504
100,1456014466.89323568344116210938,84680
101,1456014466.94364190101623535156,84840
102,1456014466.99317693710327148438,84976
103,1456014467.04350233078002929688,85088
104,1456014467.09388256072998046875,85176
105,1456014467.14317917823791503906,85232
106,1456014467.19351100921630859375,85272
107,1456014467.24283552169799804688,85288
108,1456014467.29326725006103515625,85280
109,1456014467.34366965293884277344,85248
110,1456014467.39280796051025390625,85192
111,1456014467.44325709342956542969,85112
112,1456014467.493560791015625,85008
113,1456014467.5439357757568359375,84880
114,1456014467.59319186210632324219,84728
115,1456014467.64339923858642578125,84552
116,1456014467.6937713623046875,84352
117,1456014467.74287557601928710938,84136
118,1456014467.79331684112548828125,83888
119,1456014467.84349083900451660156,83624
120,1456014467.8939762115478515625,83336
121,1456014467.94321370124816894531,83032
122,1456014467.99363827705383300781,82696
123,1456014468.04271602630615234375,82352
124,1456014468.09298777580261230469,81984
125,1456014468.14338064193725585938,81584
126,1456014468.19360566139221191406,81176
127,1456014468.24302530288696289062,80752
128,1456014468.29343581199645996094,80296
129,1456014468.34340524673461914062,79832
130,1456014468.39367079734802246094,79352
131,1456014468.44293069839477539062,78856
132,1456014468.49317383766174316406,78336
133,1456014468.54334259033203125,77808
134,1456014468.59377288818359375,77256
135,1456014468.64280796051025390625,76704
136,1456014468.69341802597045898438,76120
137,1456014468.74360489845275878906,75536
138,1456014468.7939853668212890625,74928
139,1456014468.84306955337524414062,74336
140,1456014468.89341616630554199219,73712
141,1456014468.94365549087524414062,73072
142,1456014468.992801666259765625,72448
143,1456014469.04323792457580566406,71792
144,1456014469.09345698356628417969,71136
145,1456014469.14283037185668945312,70480
146,1456014469.19305109977722167969,69808
147,1456014469.2433834075927734375,69136
148,1456014469.29359769821166992188,68456
149,1456014469.34290099143981933594,67784
150,1456014469.39313459396362304688,67096
151,1456014469.44329118728637695312,66408
152,1456014469.49363064765930175781,65720
153,1456014469.54379868507385253906,65024
154,1456014469.59339046478271484375,64344
155,1456014469.64364290237426757812,63664
156,1456014469.69290089607238769531,62992
157,1456014469.74309659004211425781,62312
158,1456014469.79343533515930175781,61632
159,1456014469.84361791610717773438,60960
160,1456014469.89376902580261230469,60288
161,1456014469.94309926033020019531,59640
162,1456014469.99333262443542480469,58992
163,1456014470.04379510879516601562,58344
164,1456014470.09282159805297851562,57720
165,1456014470.14319372177124023438,57096
166,1456014470.193401336669921875,56480
167,1456014470.24378824234008789062,55872
168,1456014470.29296898841857910156,55296
169,1456014470.3432407379150390625,54712
170,1456014470.39373636245727539062,54144
171,1456014470.44274544715881347656,53600
172,1456014470.49309301376342773438,53064
173,1456014470.54324960708618164062,52544
174,1456014470.59365677833557128906,52032
175,1456014470.64277172088623046875,51552
176,1456014470.69310307502746582031,51080
177,1456014470.74329066276550292969,50624
178,1456014470.79344487190246582031,50192
179,1456014470.84278106689453125,49784
180,1456014470.89293694496154785156,49384
181,1456014470.94326019287109375,49008
182,1456014470.99348568916320800781,48648
183,1456014471.04388356208801269531,48312
184,1456014471.09302783012390136719,48000
185,1456014471.14344501495361328125,47704
186,1456014471.19370388984680175781,47432
187,1456014471.2427845001220703125,47184
188,1456014471.29333376884460449219,46960
189,1456014471.34359455108642578125,46752
190,1456014471.39283418655395507812,46576
191,1456014471.44323849678039550781,46416
192,1456014471.49375629425048828125,46280
193,1456014471.54308366775512695312,46176
194,1456014471.5928955078125,46088
195,1456014471.64369988441467285156,46024
196,1456014471.69341444969177246094,45984
197,1456014471.74351620674133300781,45968
198,1456014471.79329752922058105469,45976
199,1456014471.84320783615112304688,46008
200,1456014471.89295411109924316406,46064
201,1456014471.94292283058166503906,46144
202,1456014471.99271750450134277344,46248
203,1456014472.04389667510986328125,46376
204,1456014472.0928020477294921875,46528
205,1456014472.14377260208129882812,46704
206,1456014472.1928577423095703125,46896
207,1456014472.24382567405700683594,47120
208,1456014472.29280400276184082031,47360
209,1456014472.34373617172241210938,47632
210,1456014472.39376854896545410156,47920
211,1456014472.44367218017578125,48224
212,1456014472.49377655982971191406,48560
213,1456014472.54371762275695800781,48912
214,1456014472.59360837936401367188,49280
215,1456014472.64374184608459472656,49672
216,1456014472.6936359405517578125,50080
217,1456014472.74375391006469726562,50512
218,1456014472.79373025894165039062,50960
219,1456014472.84381127357482910156,51424
220,1456014472.89371132850646972656,51904
221,1456014472.94387555122375488281,52408
222,1456014472.99271154403686523438,52912
223,1456014473.04361248016357421875,53456
224,1456014473.09369945526123046875,54000
225,1456014473.14356589317321777344,54560
226,1456014473.1936244964599609375,55136
227,1456014473.2435359954833984375,55720
228,1456014473.29370760917663574219,56320
229,1456014473.34363818168640136719,56928
230,1456014473.39371061325073242188,57552
231,1456014473.44377684593200683594,58184
232,1456014473.49372339248657226562,58824
233,1456014473.54276371002197265625,59456
234,1456014473.59366846084594726562,60128
235,1456014473.64377737045288085938,60784
236,1456014473.69371342658996582031,61456
237,1456014473.74379491806030273438,62128
238,1456014473.79371023178100585938,62808
239,1456014473.84389138221740722656,63488
240,1456014473.89285016059875488281,64160
241,1456014473.9437465667724609375,64856
242,1456014473.99278426170349121094,65528
243,1456014474.0438385009765625,66232
244,1456014474.09294271469116210938,66904
245,1456014474.14279246330261230469,67584
246,1456014474.19397664070129394531,68280
247,1456014474.24295139312744140625,68944
248,1456014474.29297542572021484375,69616
249,1456014474.34290027618408203125,70288
250,1456014474.39275097846984863281,70952
251,1456014474.44279170036315917969,71608
252,1456014474.4937229156494140625,72272
253,1456014474.5427455902099609375,72896
254,1456014474.5937042236328125,73544
255,1456014474.64395499229431152344,74168
256,1456014474.69278264045715332031,74768
257,1456014474.74378538131713867188,75384
258,1456014474.79270815849304199219,75960
259,1456014474.84347796440124511719,76544
260,1456014474.89349079132080078125,77112
261,1456014474.94347071647644042969,77664
262,1456014474.99347734451293945312,78200
263,1456014475.04331731796264648438,78712
264,1456014475.09338426589965820312,79216
265,1456014475.14320349693298339844,79704
266,1456014475.19317889213562011719,80176
267,1456014475.24308633804321289062,80624
268,1456014475.29296803474426269531,81064
269,1456014475.343013763427734375,81480
270,1456014475.39273524284362792969,81872
271,1456014475.44404172897338867188,82256
272,1456014475.49279999732971191406,82608
273,1456014475.54396533966064453125,82944
274,1456014475.59342288970947265625,83256
275,1456014475.64310884475708007812,83552
276,1456014475.69359660148620605469,83824
277,1456014475.74299216270446777344,84072
278,1456014475.79371476173400878906,84296
279,1456014475.84305143356323242188,84504
280,1456014475.89346003532409667969,84680
281,1456014475.943660736083984375,84840
282,1456014475.99311542510986328125,84976
283,1456014476.04337096214294433594,85088
284,1456014476.09381055831909179688,85168
285,1456014476.14303112030029296875,85232
286,1456014476.19337129592895507812,85272
287,1456014476.24376988410949707031,85288
288,1456014476.29285359382629394531,85280
289,1456014476.34345221519470214844,85248
290,1456014476.39367032051086425781,85192
291,1456014476.44295239448547363281,85112
292,1456014476.49317264556884765625,85008
293,1456014476.54354906082153320312,84880
294,1456014476.59383511543273925781,84728
295,1456014476.64296245574951171875,84552
296,1456014476.69336056709289550781,84352
297,1456014476.74360203742980957031,84136
298,1456014476.79306197166442871094,83896
299,1456014476.84323978424072265625,83624
300,1456014476.8936557769775390625,83336
301,1456014476.9428157806396484375,83032
302,1456014476.99324750900268554688,82704
303,1456014477.0434551239013671875,82352
304,1456014477.093639373779296875,81976
305,1456014477.14297628402709960938,81592
306,1456014477.19330167770385742188,81176
307,1456014477.24384164810180664062,80744
308,1456014477.29324293136596679688,80304
309,1456014477.34372949600219726562,79832
310,1456014477.39288425445556640625,79360
311,1456014477.44323086738586425781,78856
312,1456014477.49343967437744140625,78336
313,1456014477.54364156723022460938,77800
314,1456014477.59301590919494628906,77264
315,1456014477.64321017265319824219,76704
316,1456014477.69378662109375,76120
317,1456014477.74300122261047363281,75544
318,1456014477.79351210594177246094,74936
319,1456014477.84368658065795898438,74328
320,1456014477.89295744895935058594,73712
321,1456014477.94324254989624023438,73080
322,1456014477.99345302581787109375,72440
323,1456014478.04295825958251953125,71800
324,1456014478.09341311454772949219,71136
325,1456014478.14381194114685058594,70464
326,1456014478.19299960136413574219,69808
327,1456014478.24348235130310058594,69128
328,1456014478.29369688034057617188,68448
329,1456014478.34299302101135253906,67776
330,1456014478.39326548576354980469,67096
331,1456014478.44347405433654785156,66408
332,1456014478.49292802810668945312,65728
333,1456014478.54312467575073242188,65040
334,1456014478.59352850914001464844,64344
335,1456014478.64368271827697753906,63656
336,1456014478.69292116165161132812,62992
337,1456014478.74309587478637695312,62312
338,1456014478.79346299171447753906,61632
339,1456014478.84364008903503417969,60960
340,1456014478.8937854766845703125,60288
341,1456014478.94326567649841308594,59640
342,1456014478.99350762367248535156,58992
343,1456014479.04385662078857421875,58344
344,1456014479.09300374984741210938,57720
345,1456014479.14345383644104003906,57088
346,1456014479.19366216659545898438,56472
347,1456014479.24396109580993652344,55872
348,1456014479.29312396049499511719,55288
349,1456014479.34336924552917480469,54712
350,1456014479.392795562744140625,54152
351,1456014479.44297885894775390625,53600
352,1456014479.49329018592834472656,53064
353,1456014479.54343938827514648438,52544
354,1456014479.59382915496826171875,52032
355,1456014479.64298534393310546875,51552
356,1456014479.69337010383605957031,51080
357,1456014479.74356102943420410156,50624
358,1456014479.79374384880065917969,50192
359,1456014479.84313821792602539062,49776
360,1456014479.89337968826293945312,49376
361,1456014479.94388127326965332031,49000
362,1456014479.99308085441589355469,48648
363,1456014480.04340767860412597656,48312
364,1456014480.09356331825256347656,48000
365,1456014480.14399886131286621094,47704
366,1456014480.19321274757385253906,47432
367,1456014480.24343132972717285156,47184
368,1456014480.29273009300231933594,46960
369,1456014480.342960357666015625,46752
370,1456014480.39335036277770996094,46576
371,1456014480.44378042221069335938,46416
372,1456014480.49328541755676269531,46280
373,1456014480.54368662834167480469,46168
374,1456014480.59370326995849609375,46088
375,1456014480.64358210563659667969,46024
376,1456014480.69334244728088378906,45984
377,1456014480.743289947509765625,45968
378,1456014480.79297137260437011719,45976
379,1456014480.84277391433715820312,46008
380,1456014480.89359402656555175781,46064
381,1456014480.94365644454956054688,46144
382,1456014480.99358654022216796875,46248
383,1456014481.04381823539733886719,46376
384,1456014481.09382152557373046875,46528
385,1456014481.14374995231628417969,46704
386,1456014481.19287085533142089844,46896
387,1456014481.242710113525390625,47120
388,1456014481.292705535888671875,47360
389,1456014481.34363222122192382812,47632
390,1456014481.39367532730102539062,47920
391,1456014481.44357085227966308594,48224
392,1456014481.49368047714233398438,48560
393,1456014481.54360103607177734375,48904
394,1456014481.59346795082092285156,49280
395,1456014481.64356565475463867188,49672
396,1456014481.69341540336608886719,50080
397,1456014481.74353647232055664062,50512
398,1456014481.79350566864013671875,50960
399,1456014481.84371542930603027344,51424
400,1456014481.89366650581359863281,51904
401,1456014481.94378256797790527344,52408
402,1456014481.99369072914123535156,52920
403,1456014482.0435771942138671875,53456
404,1456014482.09365296363830566406,54000
405,1456014482.14353203773498535156,54560
406,1456014482.19366955757141113281,55136
407,1456014482.24367618560791015625,55720
408,1456014482.29385638236999511719,56320
409,1456014482.34272885322570800781,56920
410,1456014482.39379668235778808594,57552
411,1456014482.44380140304565429688,58184
412,1456014482.49376606941223144531,58824
413,1456014482.54277825355529785156,59456
414,1456014482.59371328353881835938,60128
415,1456014482.64274144172668457031,60776
416,1456014482.69365525245666503906,61456
417,1456014482.7439098358154296875,62128
418,1456014482.79284620285034179688,62792
419,1456014482.84290313720703125,63472
420,1456014482.89275217056274414062,64160
421,1456014482.94366502761840820312,64856
422,1456014482.99376630783081054688,65544
423,1456014483.04378986358642578125,66232
424,1456014483.09282636642456054688,66904
425,1456014483.14373826980590820312,67600
426,1456014483.19395041465759277344,68280
427,1456014483.24286556243896484375,68944
428,1456014483.29296708106994628906,69624
429,1456014483.34293079376220703125,70288
430,1456014483.39274454116821289062,70952
431,1456014483.44284486770629882812,71608
432,1456014483.49276256561279296875,72256
433,1456014483.54282212257385253906,72904
434,1456014483.59369421005249023438,73544
435,1456014483.64387059211730957031,74168
436,1456014483.69370937347412109375,74784
437,1456014483.74377369880676269531,75384
438,1456014483.79382276535034179688,75976
439,1456014483.84370660781860351562,76552
440,1456014483.89372205734252929688,77112
441,1456014483.94348955154418945312,77664
442,1456014483.99358534812927246094,78200
443,1456014484.04347491264343261719,78720
444,1456014484.09351396560668945312,79224
445,1456014484.14333176612854003906,79704
446,1456014484.1932430267333984375,80176
447,1456014484.24308252334594726562,80624
448,1456014484.292858123779296875,81056
449,1456014484.34278941154479980469,81472
450,1456014484.39362287521362304688,81880
451,1456014484.44367432594299316406,82256
452,1456014484.49349260330200195312,82608
453,1456014484.54348111152648925781,82944
454,1456014484.59294295310974121094,83256
455,1456014484.64368605613708496094,83552
456,1456014484.69309234619140625,83824
457,1456014484.74360585212707519531,84072
458,1456014484.7931232452392578125,84296
459,1456014484.84351181983947753906,84504
460,1456014484.89286208152770996094,84680
461,1456014484.94311547279357910156,84840
462,1456014484.99355340003967285156,84976
463,1456014485.04371285438537597656,85088
464,1456014485.09295821189880371094,85168
465,1456014485.14321494102478027344,85232
466,1456014485.19341063499450683594,85272
467,1456014485.24378085136413574219,85288
468,1456014485.29300570487976074219,85280
469,1456014485.34358692169189453125,85248
470,1456014485.39381146430969238281,85192
471,1456014485.44317078590393066406,85112
472,1456014485.49344968795776367188,85008
473,1456014485.54382228851318359375,84880
474,1456014485.59304046630859375,84728
475,1456014485.64328598976135253906,84552
476,1456014485.69367289543151855469,84352
477,1456014485.7427768707275390625,84136
478,1456014485.79332590103149414062,83888
479,1456014485.84347701072692871094,83624
