id, time (s), size (bits)
0,1456014461.08517932891845703125,57824
1,1456014461.13524746894836425781,57192
2,1456014461.18576884269714355469,56568
3,1456014461.23558449745178222656,55968
4,1456014461.28501152992248535156,55384
5,1456014461.33578753471374511719,54800
6,1456014461.38513112068176269531,54240
7,1456014461.4356021881103515625,53680
8,1456014461.48520565032958984375,53144
9,1456014461.53570246696472167969,52616
10,1456014461.58520364761352539062,52120
11,1456014461.63568401336669921875,51624
12,1456014461.68506288528442382812,51152
13,1456014461.73573064804077148438,50696
14,1456014461.7852230072021484375,50264
15,1456014461.83576869964599609375,49840
16,1456014461.885044097900390625,49448
17,1456014461.9359455108642578125,49056
18,1456014461.98524999618530273438,48704
19,1456014462.03594064712524414062,48360
20,1456014462.08536696434020996094,48048
21,1456014462.13597011566162109375,47744
22,1456014462.18550872802734375,47472
23,1456014462.23632836341857910156,47216
24,1456014462.28609180450439453125,46992
25,1456014462.33548760414123535156,46784
26,1456014462.3858013153076171875,46600
27,1456014462.43574738502502441406,46440
28,1456014462.4858837127685546875,46304
29,1456014462.53582525253295898438,46184
30,1456014462.58593630790710449219,46096
31,1456014462.63588190078735351562,46032
32,1456014462.68598914146423339844,45984
33,1456014462.73510050773620605469,45968
34,1456014462.78519988059997558594,45976
35,1456014462.83554625511169433594,46000
36,1456014462.88550734519958496094,46056
37,1456014462.93573212623596191406,46136
38,1456014462.98573780059814453125,46232
39,1456014463.03589630126953125,46360
40,1456014463.0858058929443359375,46504
41,1456014463.13601398468017578125,46680
42,1456014463.18497943878173828125,46864
43,1456014463.23610281944274902344,47088
44,1456014463.28522801399230957031,47320
45,1456014463.33522891998291015625,47584
46,1456014463.385379791259765625,47872
47,1456014463.43529152870178222656,48176
48,1456014463.48545336723327636719,48504
49,1456014463.53539013862609863281,48848
50,1456014463.58558869361877441406,49216
51,1456014463.63558053970336914062,49608
52,1456014463.68554925918579101562,50016
53,1456014463.73568630218505859375,50440
54,1456014463.78562831878662109375,50888
55,1456014463.83574891090393066406,51352
56,1456014463.88574552536010742188,51832
57,1456014463.93589234352111816406,52328
58,1456014463.9858341217041015625,52840
59,1456014464.03605937957763671875,53376
60,1456014464.08495593070983886719,53904
61,1456014464.13600373268127441406,54472
62,1456014464.18499732017517089844,55032
63,1456014464.23492193222045898438,55616
64,1456014464.28495335578918457031,56216
65,1456014464.33522248268127441406,56824
66,1456014464.38543272018432617188,57448
67,1456014464.43543243408203125,58080
68,1456014464.48564600944519042969,58720
69,1456014464.53565907478332519531,59368
70,1456014464.58563113212585449219,60016
71,1456014464.63585996627807617188,60680
72,1456014464.68592357635498046875,61352
73,1456014464.7360382080078125,62024
74,1456014464.78601241111755371094,62704
75,1456014464.83623027801513671875,63384
76,1456014464.88501071929931640625,64048
77,1456014464.93627095222473144531,64752
78,1456014464.98528051376342773438,65424
79,1456014465.0353641510009765625,66112
80,1456014465.0855464935302734375,66800
81,1456014465.13551831245422363281,67488
82,1456014465.18568921089172363281,68168
83,1456014465.23574209213256835938,68848
84,1456014465.28608012199401855469,69528
85,1456014465.33497262001037597656,70184
86,1456014465.38619565963745117188,70864
87,1456014465.43507432937622070312,71504
88,1456014465.486034393310546875,72168
89,1456014465.53503155708312988281,72800
90,1456014465.58600902557373046875,73448
91,1456014465.63496947288513183594,74064
92,1456014465.68608140945434570312,74688
93,1456014465.7362880706787109375,75296
94,1456014465.78529453277587890625,75872
95,1456014465.83516931533813476562,76456
96,1456014465.88497090339660644531,77016
97,1456014465.93591046333312988281,77576
98,1456014465.98592400550842285156,78120
99,1456014466.03576755523681640625,78640
100,1456014466.08578228950500488281,79144
101,1456014466.13565206527709960938,79632
102,1456014466.18588924407958984375,80104
103,1456014466.2358856201171875,80560
104,1456014466.28599262237548828125,81000
105,1456014466.33591580390930175781,81416
106,1456014466.38581156730651855469,81816
107,1456014466.43598723411560058594,82200
108,1456014466.48583722114562988281,82560
109,1456014466.53549599647521972656,82896
110,1456014466.58595228195190429688,83216
111,1456014466.635707855224609375,83504
112,1456014466.68504428863525390625,83776
113,1456014466.73589324951171875,84032
114,1456014466.78554391860961914062,84264
115,1456014466.83591318130493164062,84472
116,1456014466.88525462150573730469,84656
117,1456014466.93562197685241699219,84816
118,1456014466.98605680465698242188,84952
119,1456014467.03541302680969238281,85072
120,1456014467.08604931831359863281,85160
121,1456014467.13528275489807128906,85224
122,1456014467.1858501434326171875,85272
123,1456014467.23507332801818847656,85288
124,1456014467.28548574447631835938,85280
125,1456014467.33592367172241210938,85256
126,1456014467.38488459587097167969,85200
127,1456014467.43557286262512207031,85128
128,1456014467.48582124710083007812,85024
129,1456014467.53568172454833984375,84896
130,1456014467.58588814735412597656,84752
131,1456014467.63624501228332519531,84576
132,1456014467.68554449081420898438,84384
133,1456014467.73592042922973632812,84168
134,1456014467.78526830673217773438,83936
135,1456014467.835620880126953125,83672
136,1456014467.88497042655944824219,83392
137,1456014467.93536424636840820312,83080
138,1456014467.98564100265502929688,82752
139,1456014468.03606820106506347656,82400
140,1456014468.08546376228332519531,82040
141,1456014468.135791778564453125,81648
142,1456014468.18596482276916503906,81240
143,1456014468.23545598983764648438,80816
144,1456014468.28576922416687011719,80368
145,1456014468.33523511886596679688,79912
146,1456014468.38551020622253417969,79432
147,1456014468.43590021133422851562,78928
148,1456014468.48493099212646484375,78424
149,1456014468.53536701202392578125,77888
150,1456014468.58559679985046386719,77344
151,1456014468.63600850105285644531,76784
152,1456014468.68546319007873535156,76216
153,1456014468.73575949668884277344,75624
154,1456014468.7850131988525390625,75040
155,1456014468.83537602424621582031,74432
156,1456014468.885776519775390625,73800
157,1456014468.93606066703796386719,73168
158,1456014468.9851589202880859375,72544
159,1456014469.03568506240844726562,71888
160,1456014469.08595204353332519531,71232
161,1456014469.13539385795593261719,70584
162,1456014469.18560910224914550781,69912
163,1456014469.23608636856079101562,69232
164,1456014469.28526735305786132812,68568
165,1456014469.33581852912902832031,67880
166,1456014469.38595843315124511719,67192
167,1456014469.43512201309204101562,66520
168,1456014469.4854793548583984375,65832
169,1456014469.5357456207275390625,65136
170,1456014469.58504366874694824219,64464
171,1456014469.63542318344116210938,63776
172,1456014469.68588590621948242188,63088
173,1456014469.73495912551879882812,62416
174,1456014469.78527164459228515625,61736
175,1456014469.83571481704711914062,61064
176,1456014469.88607096672058105469,60392
177,1456014469.93528127670288085938,59744
178,1456014469.98553204536437988281,59088
179,1456014470.03603267669677734375,58440
180,1456014470.08506011962890625,57816
181,1456014470.13558030128479003906,57192
182,1456014470.18576407432556152344,56568
183,1456014470.23617124557495117188,55960
184,1456014470.28541207313537597656,55384
185,1456014470.3359088897705078125,54792
186,1456014470.38494420051574707031,54240
187,1456014470.43510651588439941406,53688
188,1456014470.48564362525939941406,53144
189,1456014470.53602504730224609375,52616
190,1456014470.5853748321533203125,52120
191,1456014470.63569974899291992188,51624
192,1456014470.68620443344116210938,51144
193,1456014470.73547291755676269531,50696
194,1456014470.7858066558837890625,50256
195,1456014470.83602404594421386719,49840
196,1456014470.88504123687744140625,49448
197,1456014470.93569874763488769531,49064
198,1456014470.9858455657958984375,48696
199,1456014471.03507232666015625,48368
200,1456014471.08545398712158203125,48048
201,1456014471.13600301742553710938,47744
202,1456014471.18500447273254394531,47480
203,1456014471.235637664794921875,47224
204,1456014471.28592324256896972656,46992
205,1456014471.33497071266174316406,46784
206,1456014471.3855113983154296875,46600
207,1456014471.43580031394958496094,46440
208,1456014471.48501896858215332031,46304
209,1456014471.53555655479431152344,46184
210,1456014471.58613324165344238281,46096
211,1456014471.63588619232177734375,46032
212,1456014471.68595862388610839844,45984
213,1456014471.73588919639587402344,45968
214,1456014471.78573322296142578125,45976
215,1456014471.83573365211486816406,46000
216,1456014471.88549065589904785156,46056
217,1456014471.93560242652893066406,46128
218,1456014471.98553681373596191406,46232
219,1456014472.03568243980407714844,46360
220,1456014472.08566069602966308594,46504
221,1456014472.13585710525512695312,46672
222,1456014472.18589091300964355469,46872
223,1456014472.23594307899475097656,47088
224,1456014472.28492307662963867188,47320
225,1456014472.33594107627868652344,47592
226,1456014472.38602089881896972656,47872
227,1456014472.43593335151672363281,48176
228,1456014472.48603200912475585938,48504
229,1456014472.53592586517333984375,48856
230,1456014472.58607172966003417969,49224
231,1456014472.63604068756103515625,49608
232,1456014472.68594050407409667969,50016
233,1456014472.73613834381103515625,50448
234,1456014472.78496766090393066406,50880
235,1456014472.83522629737854003906,51344
236,1456014472.88526368141174316406,51824
237,1456014472.93550133705139160156,52328
238,1456014472.98545503616333007812,52840
239,1456014473.03564190864562988281,53368
240,1456014473.08564305305480957031,53912
241,1456014473.13559055328369140625,54472
242,1456014473.18572854995727539062,55040
243,1456014473.2357120513916015625,55624
244,1456014473.28583765029907226562,56224
245,1456014473.33581566810607910156,56832
246,1456014473.38605546951293945312,57456
247,1456014473.43601560592651367188,58088
248,1456014473.48613381385803222656,58728
249,1456014473.53498768806457519531,59360
250,1456014473.58491969108581542969,60008
251,1456014473.63497161865234375,60672
252,1456014473.68605899810791015625,61352
253,1456014473.73520183563232421875,62016
254,1456014473.78518557548522949219,62688
255,1456014473.83540463447570800781,63368
256,1456014473.88538002967834472656,64056
257,1456014473.93515133857727050781,64736
258,1456014473.98521924018859863281,65424
259,1456014474.03522038459777832031,66112
260,1456014474.08552527427673339844,66800
261,1456014474.13561701774597167969,67488
262,1456014474.18578815460205078125,68168
263,1456014474.23582816123962402344,68848
264,1456014474.28609776496887207031,69528
265,1456014474.33491253852844238281,70184
266,1456014474.38610124588012695312,70864
267,1456014474.43496346473693847656,71504
268,1456014474.48596215248107910156,72168
269,1456014474.53496718406677246094,72800
270,1456014474.5859584808349609375,73448
271,1456014474.6360721588134765625,74072
272,1456014474.68602228164672851562,74688
273,1456014474.73621487617492675781,75296
274,1456014474.78527140617370605469,75872
275,1456014474.83510994911193847656,76448
276,1456014474.88613033294677734375,77032
277,1456014474.93602013587951660156,77576
278,1456014474.98605966567993164062,78120
279,1456014475.03595566749572753906,78640
280,1456014475.08596897125244140625,79144
281,1456014475.13582086563110351562,79632
282,1456014475.18598675727844238281,80112
283,1456014475.23585462570190429688,80560
284,1456014475.28589224815368652344,81000
285,1456014475.33581089973449707031,81416
286,1456014475.38567233085632324219,81816
287,1456014475.43573784828186035156,82200
288,1456014475.48563933372497558594,82552
289,1456014475.53581285476684570312,82896
290,1456014475.58522629737854003906,83208
291,1456014475.63602852821350097656,83512
292,1456014475.68522214889526367188,83776
293,1456014475.73596072196960449219,84032
294,1456014475.78547525405883789062,84264
295,1456014475.83591175079345703125,84472
296,1456014475.88523650169372558594,84656
297,1456014475.93556642532348632812,84816
298,1456014475.98610281944274902344,84952
299,1456014476.03526020050048828125,85072
300,1456014476.08583021163940429688,85160
301,1456014476.13498210906982421875,85224
302,1456014476.18553709983825683594,85272
303,1456014476.23582983016967773438,85288
304,1456014476.28606939315795898438,85280
305,1456014476.33549475669860839844,85256
306,1456014476.38579964637756347656,85200
307,1456014476.43518376350402832031,85128
308,1456014476.48550391197204589844,85024
309,1456014476.53597021102905273438,84896
310,1456014476.58507823944091796875,84752
311,1456014476.6355953216552734375,84584
312,1456014476.68587279319763183594,84384
313,1456014476.73501610755920410156,84176
314,1456014476.78566884994506835938,83928
315,1456014476.83584070205688476562,83664
316,1456014476.88541197776794433594,83384
317,1456014476.93574094772338867188,83080
318,1456014476.98619413375854492188,82752
319,1456014477.03539180755615234375,82408
320,1456014477.08577418327331542969,82040
321,1456014477.13601922988891601562,81648
322,1456014477.1850910186767578125,81248
323,1456014477.23584270477294921875,80816
324,1456014477.28495287895202636719,80376
325,1456014477.33546495437622070312,79912
326,1456014477.38573884963989257812,79424
327,1456014477.43611788749694824219,78928
328,1456014477.48528265953063964844,78424
329,1456014477.53581333160400390625,77888
330,1456014477.58610320091247558594,77336
331,1456014477.63518667221069335938,76792
332,1456014477.68593883514404296875,76208
333,1456014477.73506307601928710938,75640
334,1456014477.78569841384887695312,75032
335,1456014477.8359432220458984375,74424
336,1456014477.88528871536254882812,73808
337,1456014477.9356689453125,73176
338,1456014477.98607802391052246094,72536
339,1456014478.03519988059997558594,71896
340,1456014478.08568716049194335938,71240
341,1456014478.13510417938232421875,70584
342,1456014478.18551349639892578125,69912
343,1456014478.23599362373352050781,69232
344,1456014478.28508329391479492188,68568
345,1456014478.33566379547119140625,67880
346,1456014478.38593173027038574219,67192
347,1456014478.43503689765930175781,66520
348,1456014478.48538446426391601562,65832
349,1456014478.53564715385437011719,65136
350,1456014478.58503031730651855469,64464
351,1456014478.63526582717895507812,63776
352,1456014478.68569612503051757812,63088
353,1456014478.7359180450439453125,62408
354,1456014478.78517508506774902344,61744
355,1456014478.83543801307678222656,61064
356,1456014478.8857784271240234375,60400
357,1456014478.93601226806640625,59736
358,1456014478.98507928848266601562,59096
359,1456014479.03567552566528320312,58448
360,1456014479.08590054512023925781,57808
361,1456014479.13525223731994628906,57192
362,1456014479.18559813499450683594,56576
363,1456014479.23593425750732421875,55968
364,1456014479.28494930267333984375,55384
365,1456014479.33552479743957519531,54800
366,1456014479.3858489990234375,54232
367,1456014479.435977935791015625,53680
368,1456014479.485370635986328125,53144
369,1456014479.53560781478881835938,52624
370,1456014479.58603119850158691406,52112
371,1456014479.63509082794189453125,51632
372,1456014479.68568253517150878906,51152
373,1456014479.73592877388000488281,50696
374,1456014479.78524541854858398438,50264
375,1456014479.83558440208435058594,49840
376,1456014479.88587808609008789062,49440
377,1456014479.93527197837829589844,49064
378,1456014479.98568010330200195312,48704
379,1456014480.03599333763122558594,48360
380,1456014480.08500123023986816406,48048
381,1456014480.135517120361328125,47752
382,1456014480.18578934669494628906,47472
383,1456014480.23627352714538574219,47216
384,1456014480.28558349609375,46992
385,1456014480.33584094047546386719,46784
386,1456014480.38507843017578125,46600
387,1456014480.43561148643493652344,46440
388,1456014480.48506832122802734375,46304
389,1456014480.53564381599426269531,46184
390,1456014480.58562541007995605469,46096
391,1456014480.63553595542907714844,46032
392,1456014480.68568921089172363281,45984
393,1456014480.73557496070861816406,45968
394,1456014480.78541970252990722656,45976
395,1456014480.83537268638610839844,46000
396,1456014480.88501143455505371094,46056
397,1456014480.93500471115112304688,46128
398,1456014480.98600912094116210938,46232
399,1456014481.03625226020812988281,46360
400,1456014481.08521246910095214844,46504
401,1456014481.13543939590454101562,46672
402,1456014481.18550133705139160156,46872
403,1456014481.23549675941467285156,47088
404,1456014481.28569650650024414062,47328
405,1456014481.3356266021728515625,47584
406,1456014481.38571882247924804688,47872
407,1456014481.43567490577697753906,48176
408,1456014481.48589968681335449219,48504
409,1456014481.53585124015808105469,48856
410,1456014481.58590388298034667969,49224
411,1456014481.6358585357666015625,49608
412,1456014481.68582057952880859375,50016
413,1456014481.73611998558044433594,50448
414,1456014481.78498888015747070312,50880
415,1456014481.83520030975341796875,51344
416,1456014481.88507723808288574219,51824
417,1456014481.93550205230712890625,52328
418,1456014481.98571276664733886719,52840
419,1456014482.03616857528686523438,53376
420,1456014482.08520174026489257812,53904
421,1456014482.13519525527954101562,54464
422,1456014482.18542933464050292969,55040
423,1456014482.23552656173706054688,55624
424,1456014482.285736083984375,56224
425,1456014482.33569669723510742188,56832
426,1456014482.38593387603759765625,57456
427,1456014482.43589186668395996094,58080
428,1456014482.48597288131713867188,58720
429,1456014482.53595185279846191406,59368
430,1456014482.58588337898254394531,60024
431,1456014482.63602328300476074219,60688
432,1456014482.68596553802490234375,61352
433,1456014482.73500657081604003906,62008
434,1456014482.7849826812744140625,62688
435,1456014482.83640694618225097656,63384
436,1456014482.88551068305969238281,64056
437,1456014482.93570017814636230469,64744
438,1456014482.9857387542724609375,65432
439,1456014483.035736083984375,66120
440,1456014483.08595132827758789062,66808
441,1456014483.13598728179931640625,67488
442,1456014483.18522357940673828125,68160
443,1456014483.23540663719177246094,68840
444,1456014483.28566694259643554688,69520
445,1456014483.33570766448974609375,70192
446,1456014483.38585996627807617188,70856
447,1456014483.43602871894836425781,71520
448,1456014483.48604249954223632812,72168
449,1456014483.53504443168640136719,72800
450,1456014483.5860385894775390625,73448
451,1456014483.63503575325012207031,74064
452,1456014483.68495345115661621094,74672
453,1456014483.73511481285095214844,75280
454,1456014483.78524470329284667969,75872
455,1456014483.8351116180419921875,76448
456,1456014483.88603925704956054688,77032
457,1456014483.93584108352661132812,77576
458,1456014483.98585772514343261719,78112
459,1456014484.035701751708984375,78640
460,1456014484.08587193489074707031,79144
461,1456014484.13578271865844726562,79632
462,1456014484.18587327003479003906,80104
463,1456014484.23574614524841308594,80560
464,1456014484.28578305244445800781,81000
465,1456014484.3356781005859375,81416
466,1456014484.38552093505859375,81816
467,1456014484.43552684783935546875,82192
468,1456014484.48537564277648925781,82552
469,1456014484.53549075126647949219,82896
470,1456014484.58600735664367675781,83216
471,1456014484.63576865196228027344,83512
472,1456014484.68606686592102050781,83784
473,1456014484.73569035530090332031,84032
474,1456014484.78507590293884277344,84264
475,1456014484.83559966087341308594,84472
476,1456014484.88606524467468261719,84656
477,1456014484.93524217605590820312,84816
478,1456014484.98598504066467285156,84952
479,1456014485.03499364852905273438,85064
480,1456014485.08562207221984863281,85160
