id, time (s), size (bits)
0,1456014460.94623684883117675781,59608
1,1456014460.99641013145446777344,58952
2,1456014461.046916961669921875,58304
3,1456014461.09672021865844726562,57672
4,1456014461.14621400833129882812,57056
5,1456014461.19716215133666992188,56432
6,1456014461.24674558639526367188,55840
7,1456014461.29634332656860351562,55256
8,1456014461.34624314308166503906,54680
9,1456014461.39669728279113769531,54112
10,1456014461.44657087326049804688,53560
11,1456014461.49618077278137207031,53032
12,1456014461.54686403274536132812,52504
13,1456014461.59644675254821777344,52008
14,1456014461.64706683158874511719,51512
15,1456014461.69694852828979492188,51048
16,1456014461.7466278076171875,50600
17,1456014461.79648327827453613281,50168
18,1456014461.84701418876647949219,49744
19,1456014461.89659714698791503906,49352
20,1456014461.94611716270446777344,48984
21,1456014461.99693965911865234375,48624
22,1456014462.04648137092590332031,48288
23,1456014462.097324371337890625,47976
24,1456014462.14683270454406738281,47688
25,1456014462.19655132293701171875,47416
26,1456014462.24646496772766113281,47168
27,1456014462.29597258567810058594,46944
28,1456014462.34652066230773925781,46744
29,1456014462.39665651321411132812,46560
30,1456014462.44712066650390625,46408
31,1456014462.49625158309936523438,46272
32,1456014462.54640817642211914062,46168
33,1456014462.59676575660705566406,46080
34,1456014462.64677596092224121094,46016
35,1456014462.69612979888916015625,45984
36,1456014462.74628996849060058594,45968
37,1456014462.79653406143188476562,45976
38,1456014462.84680461883544921875,46016
39,1456014462.89821028709411621094,46072
40,1456014462.94601535797119140625,46152
41,1456014462.99618744850158691406,46256
42,1456014463.04629850387573242188,46384
43,1456014463.09658288955688476562,46536
44,1456014463.1468410491943359375,46720
45,1456014463.19687056541442871094,46912
46,1456014463.24708199501037597656,47136
47,1456014463.29605007171630859375,47376
48,1456014463.34623050689697265625,47648
49,1456014463.39633655548095703125,47936
50,1456014463.44663929939270019531,48248
51,1456014463.49682784080505371094,48576
52,1456014463.54684567451477050781,48928
53,1456014463.59608507156372070312,49296
54,1456014463.64605712890625,49688
55,1456014463.69626617431640625,50104
56,1456014463.74641108512878417969,50536
57,1456014463.79668211936950683594,50984
58,1456014463.84694504737854003906,51456
59,1456014463.8962917327880859375,51936
60,1456014463.94637274742126464844,52432
61,1456014463.9966411590576171875,52952
62,1456014464.04687070846557617188,53488
63,1456014464.09696531295776367188,54040
64,1456014464.14603090286254882812,54584
65,1456014464.19637966156005859375,55168
66,1456014464.24703168869018554688,55760
67,1456014464.29602146148681640625,56352
68,1456014464.34618592262268066406,56960
69,1456014464.39636564254760742188,57584
70,1456014464.44649672508239746094,58216
71,1456014464.49696016311645507812,58864
72,1456014464.546054840087890625,59504
73,1456014464.5963001251220703125,60160
74,1456014464.64633107185363769531,60824
75,1456014464.69656634330749511719,61496
76,1456014464.7468395233154296875,62168
77,1456014464.79721307754516601562,62856
78,1456014464.8463077545166015625,63520
79,1456014464.89647626876831054688,64208
80,1456014464.94674587249755859375,64896
81,1456014464.99686932563781738281,65584
82,1456014465.04603457450866699219,66256
83,1456014465.09594058990478515625,66944
84,1456014465.14732813835144042969,67648
85,1456014465.19643712043762207031,68312
86,1456014465.24671626091003417969,69000
87,1456014465.29685568809509277344,69672
88,1456014465.34692597389221191406,70344
89,1456014465.39613866806030273438,70992
90,1456014465.4463176727294921875,71656
91,1456014465.49653530120849609375,72304
92,1456014465.54657006263732910156,72952
93,1456014465.59686803817749023438,73584
94,1456014465.64694094657897949219,74208
95,1456014465.69713616371154785156,74824
96,1456014465.74628853797912597656,75416
97,1456014465.7965087890625,76008
98,1456014465.84668731689453125,76584
99,1456014465.89669489860534667969,77144
100,1456014465.94681119918823242188,77696
101,1456014465.99673819541931152344,78232
102,1456014466.0472469329833984375,78752
103,1456014466.09622406959533691406,79248
104,1456014466.14642882347106933594,79736
105,1456014466.19645404815673828125,80208
106,1456014466.24644637107849121094,80656
107,1456014466.29683375358581542969,81096
108,1456014466.34678626060485839844,81504
109,1456014466.39685320854187011719,81904
110,1456014466.44684672355651855469,82280
111,1456014466.49707770347595214844,82632
112,1456014466.54685449600219726562,82968
113,1456014466.59661149978637695312,83280
114,1456014466.64601635932922363281,83568
115,1456014466.69673109054565429688,83840
116,1456014466.74632692337036132812,84088
117,1456014466.79695534706115722656,84312
118,1456014466.84646868705749511719,84512
119,1456014466.89679431915283203125,84696
120,1456014466.94742369651794433594,84848
121,1456014466.996826171875,84984
122,1456014467.04624128341674804688,85088
123,1456014467.0966472625732421875,85176
124,1456014467.14691495895385742188,85240
125,1456014467.19658684730529785156,85272
126,1456014467.24702095985412597656,85288
127,1456014467.29658293724060058594,85280
128,1456014467.34689497947692871094,85240
129,1456014467.39671421051025390625,85184
130,1456014467.44707822799682617188,85104
131,1456014467.49657654762268066406,85000
132,1456014467.546894073486328125,84872
133,1456014467.59600687026977539062,84720
134,1456014467.64656162261962890625,84544
135,1456014467.69693493843078613281,84336
136,1456014467.74656581878662109375,84120
137,1456014467.79680752754211425781,83872
138,1456014467.84620356559753417969,83608
139,1456014467.8965778350830078125,83320
140,1456014467.94705438613891601562,83008
141,1456014467.99640631675720214844,82680
142,1456014468.04685544967651367188,82328
143,1456014468.0964641571044921875,81952
144,1456014468.14685082435607910156,81560
145,1456014468.19631910324096679688,81152
146,1456014468.24668955802917480469,80720
147,1456014468.29714226722717285156,80264
148,1456014468.3464488983154296875,79808
149,1456014468.39698719978332519531,79312
150,1456014468.44635725021362304688,78824
151,1456014468.49688100814819335938,78296
152,1456014468.54638051986694335938,77776
153,1456014468.59668517112731933594,77224
154,1456014468.64634847640991210938,76664
155,1456014468.6967372894287109375,76088
156,1456014468.74730515480041503906,75488
157,1456014468.79663610458374023438,74896
158,1456014468.84714031219482421875,74280
159,1456014468.89647746086120605469,73672
160,1456014468.94681382179260253906,73032
161,1456014468.99632859230041503906,72400
162,1456014469.04683279991149902344,71744
163,1456014469.09637737274169921875,71096
164,1456014469.1467876434326171875,70432
165,1456014469.1971435546875,69752
166,1456014469.24650478363037109375,69088
167,1456014469.29703164100646972656,68408
168,1456014469.34632515907287597656,67736
169,1456014469.39664530754089355469,67048
170,1456014469.446269989013671875,66368
171,1456014469.49665999412536621094,65672
172,1456014469.54603338241577148438,65000
173,1456014469.59627079963684082031,64312
174,1456014469.64685201644897460938,63616
175,1456014469.69598174095153808594,62944
176,1456014469.74650216102600097656,62264
177,1456014469.79682040214538574219,61584
178,1456014469.84592223167419433594,60928
179,1456014469.8966808319091796875,60256
180,1456014469.94698500633239746094,59592
181,1456014469.99633002281188964844,58952
182,1456014470.04664587974548339844,58304
183,1456014470.0970973968505859375,57672
184,1456014470.14643073081970214844,57056
185,1456014470.19697356224060058594,56432
186,1456014470.2462673187255859375,55840
187,1456014470.29669594764709472656,55248
188,1456014470.34631848335266113281,54680
189,1456014470.39656281471252441406,54112
190,1456014470.44695830345153808594,53560
191,1456014470.49622654914855957031,53032
192,1456014470.54685139656066894531,52504
193,1456014470.59602618217468261719,52008
194,1456014470.64656329154968261719,51520
195,1456014470.6968441009521484375,51048
196,1456014470.74595880508422851562,50600
197,1456014470.79671359062194824219,50160
198,1456014470.84701037406921386719,49744
199,1456014470.89643502235412597656,49360
200,1456014470.9468097686767578125,48976
201,1456014470.99714064598083496094,48624
202,1456014471.04650640487670898438,48288
203,1456014471.09712004661560058594,47976
204,1456014471.14646029472351074219,47688
205,1456014471.19685506820678710938,47416
206,1456014471.24637508392333984375,47168
207,1456014471.29683327674865722656,46944
208,1456014471.34632396697998046875,46744
209,1456014471.39654231071472167969,46560
210,1456014471.44712591171264648438,46408
211,1456014471.49637722969055175781,46272
212,1456014471.54720044136047363281,46168
213,1456014471.59605050086975097656,46080
214,1456014471.646930694580078125,46016
215,1456014471.69709897041320800781,45984
216,1456014471.74704003334045410156,45968
217,1456014471.79592871665954589844,45976
218,1456014471.84684777259826660156,46016
219,1456014471.89693021774291992188,46072
220,1456014471.94700002670288085938,46152
221,1456014471.99618363380432128906,46256
222,1456014472.04626178741455078125,46384
223,1456014472.0963611602783203125,46536
224,1456014472.14667749404907226562,46720
225,1456014472.19683027267456054688,46912
226,1456014472.24704408645629882812,47136
227,1456014472.29588651657104492188,47376
228,1456014472.34713816642761230469,47648
229,1456014472.39616441726684570312,47936
230,1456014472.44645667076110839844,48248
231,1456014472.496623992919921875,48576
232,1456014472.54669046401977539062,48928
233,1456014472.59703850746154785156,49304
234,1456014472.64603638648986816406,49688
235,1456014472.69620203971862792969,50104
236,1456014472.74627447128295898438,50536
237,1456014472.796527862548828125,50984
238,1456014472.84664106369018554688,51456
239,1456014472.89703822135925292969,51944
240,1456014472.94601202011108398438,52432
241,1456014472.99708151817321777344,52960
242,1456014473.04636096954345703125,53480
243,1456014473.09634423255920410156,54032
244,1456014473.14649510383605957031,54592
245,1456014473.1965084075927734375,55168
246,1456014473.24687051773071289062,55760
247,1456014473.29693770408630371094,56360
248,1456014473.34713721275329589844,56976
249,1456014473.39624857902526855469,57584
250,1456014473.44632554054260253906,58216
251,1456014473.49663519859313964844,58856
252,1456014473.54678034782409667969,59512
253,1456014473.59694814682006835938,60168
254,1456014473.64695429801940917969,60832
255,1456014473.69729733467102050781,61504
256,1456014473.74649930000305175781,62168
257,1456014473.79672956466674804688,62848
258,1456014473.84695386886596679688,63528
259,1456014473.89607191085815429688,64200
260,1456014473.94640994071960449219,64888
261,1456014473.99648165702819824219,65576
262,1456014474.04688525199890136719,66272
263,1456014474.09694457054138183594,66960
264,1456014474.14732098579406738281,67648
265,1456014474.19646739959716796875,68312
266,1456014474.24669599533081054688,69000
267,1456014474.29702687263488769531,69672
268,1456014474.34606194496154785156,70328
269,1456014474.39630270004272460938,71000
270,1456014474.44642305374145507812,71656
271,1456014474.49673295021057128906,72312
272,1456014474.54699420928955078125,72952
273,1456014474.59625077247619628906,73576
274,1456014474.64622759819030761719,74200
275,1456014474.69647645950317382812,74816
276,1456014474.74660325050354003906,75416
277,1456014474.79688382148742675781,76008
278,1456014474.84696412086486816406,76584
279,1456014474.89694976806640625,77152
280,1456014474.947063446044921875,77696
281,1456014474.99699449539184570312,78232
282,1456014475.04724931716918945312,78752
283,1456014475.0962677001953125,79248
284,1456014475.14640045166015625,79736
285,1456014475.19649028778076171875,80208
286,1456014475.246524810791015625,80656
287,1456014475.29678082466125488281,81096
288,1456014475.34682226181030273438,81504
289,1456014475.39593720436096191406,81896
290,1456014475.44701671600341796875,82280
291,1456014475.49713158607482910156,82632
292,1456014475.54670572280883789062,82968
293,1456014475.59645390510559082031,83280
294,1456014475.64699721336364746094,83568
295,1456014475.69658732414245605469,83840
296,1456014475.74599456787109375,84080
297,1456014475.79651951789855957031,84312
298,1456014475.846042633056640625,84512
299,1456014475.89642620086669921875,84696
300,1456014475.94701051712036132812,84848
301,1456014475.99634480476379394531,84984
302,1456014476.04691100120544433594,85088
303,1456014476.09643626213073730469,85176
304,1456014476.14686608314514160156,85240
305,1456014476.19625592231750488281,85272
306,1456014476.24679827690124511719,85288
307,1456014476.29637694358825683594,85280
308,1456014476.34688329696655273438,85240
309,1456014476.39627790451049804688,85184
310,1456014476.44668984413146972656,85104
311,1456014476.49724984169006347656,85000
312,1456014476.54661059379577636719,84872
313,1456014476.5968036651611328125,84712
314,1456014476.64631104469299316406,84544
315,1456014476.69671607017517089844,84344
316,1456014476.74636316299438476562,84120
317,1456014476.79678201675415039062,83872
318,1456014476.84607458114624023438,83608
319,1456014476.89651584625244140625,83320
320,1456014476.94700503349304199219,83008
321,1456014476.99642705917358398438,82680
322,1456014477.04683327674865722656,82328
323,1456014477.09642052650451660156,81952
324,1456014477.14685654640197753906,81560
325,1456014477.19623279571533203125,81152
326,1456014477.246845245361328125,80720
327,1456014477.29626035690307617188,80272
328,1456014477.34661746025085449219,79800
329,1456014477.39705801010131835938,79312
330,1456014477.44655108451843261719,78816
331,1456014477.49688458442687988281,78296
332,1456014477.54650545120239257812,77768
333,1456014477.59676313400268554688,77224
334,1456014477.64645147323608398438,76664
335,1456014477.69679713249206542969,76088
336,1456014477.74729013442993164062,75488
337,1456014477.79660868644714355469,74904
338,1456014477.84709620475769042969,74280
339,1456014477.8965435028076171875,73672
340,1456014477.94689607620239257812,73032
341,1456014477.99639582633972167969,72400
342,1456014478.04685997962951660156,71744
343,1456014478.09635949134826660156,71096
344,1456014478.14690852165222167969,70424
345,1456014478.19648027420043945312,69768
346,1456014478.24680042266845703125,69088
347,1456014478.29617619514465332031,68416
348,1456014478.34662532806396484375,67728
349,1456014478.39684891700744628906,67040
350,1456014478.44647645950317382812,66360
351,1456014478.49682831764221191406,65672
352,1456014478.54637932777404785156,64992
353,1456014478.59677147865295410156,64304
354,1456014478.64722323417663574219,63608
355,1456014478.69651556015014648438,62944
356,1456014478.74701738357543945312,62256
357,1456014478.79638433456420898438,61592
358,1456014478.84679698944091796875,60912
359,1456014478.89636707305908203125,60256
360,1456014478.9467754364013671875,59592
361,1456014478.9961528778076171875,58952
362,1456014479.0465850830078125,58304
363,1456014479.09708428382873535156,57672
364,1456014479.14634227752685546875,57056
365,1456014479.19695234298706054688,56432
366,1456014479.2462596893310546875,55840
367,1456014479.29664373397827148438,55248
368,1456014479.34598541259765625,54680
369,1456014479.39626193046569824219,54112
370,1456014479.44689631462097167969,53560
371,1456014479.49618411064147949219,53032
372,1456014479.54671812057495117188,52504
373,1456014479.5970001220703125,52000
374,1456014479.64655017852783203125,51520
375,1456014479.69706988334655761719,51048
376,1456014479.74641966819763183594,50600
377,1456014479.79680585861206054688,50160
378,1456014479.84705495834350585938,49744
379,1456014479.8965396881103515625,49352
380,1456014479.94701147079467773438,48976
381,1456014479.99649667739868164062,48624
382,1456014480.04680991172790527344,48288
383,1456014480.09629344940185546875,47976
384,1456014480.14674329757690429688,47688
385,1456014480.19698691368103027344,47416
386,1456014480.24649643898010253906,47168
387,1456014480.29681372642517089844,46944
388,1456014480.34636616706848144531,46744
389,1456014480.39675736427307128906,46560
390,1456014480.44611668586730957031,46408
391,1456014480.49646639823913574219,46272
392,1456014480.54715633392333984375,46168
393,1456014480.59708237648010253906,46080
394,1456014480.64699602127075195312,46016
395,1456014480.69591832160949707031,45984
396,1456014480.74685001373291015625,45968
397,1456014480.7968463897705078125,45976
398,1456014480.84694027900695800781,46016
399,1456014480.89721775054931640625,46072
400,1456014480.94622802734375,46152
401,1456014480.99648618698120117188,46256
402,1456014481.04656434059143066406,46384
403,1456014481.09666800498962402344,46536
404,1456014481.14693021774291992188,46720
405,1456014481.19695186614990234375,46920
406,1456014481.24610590934753417969,47136
407,1456014481.29621863365173339844,47376
408,1456014481.34651303291320800781,47648
409,1456014481.39658093452453613281,47936
410,1456014481.44686198234558105469,48248
411,1456014481.49700069427490234375,48584
412,1456014481.54596447944641113281,48928
413,1456014481.59624004364013671875,49296
414,1456014481.64629364013671875,49688
415,1456014481.69662451744079589844,50104
416,1456014481.74687457084655761719,50536
417,1456014481.79724931716918945312,50992
418,1456014481.84628200531005859375,51448
419,1456014481.89654183387756347656,51936
420,1456014481.94669103622436523438,52440
421,1456014481.9968471527099609375,52960
422,1456014482.04598236083984375,53480
423,1456014482.09701275825500488281,54040
424,1456014482.14632296562194824219,54592
425,1456014482.19645214080810546875,55168
426,1456014482.24677586555480957031,55760
427,1456014482.29684686660766601562,56360
428,1456014482.347011566162109375,56968
429,1456014482.39606213569641113281,57584
430,1456014482.44622373580932617188,58216
431,1456014482.49648165702819824219,58856
432,1456014482.54652810096740722656,59504
433,1456014482.59672427177429199219,60168
434,1456014482.64697289466857910156,60832
435,1456014482.69623136520385742188,61488
436,1456014482.74639606475830078125,62168
437,1456014482.79668974876403808594,62848
438,1456014482.84679365158081054688,63528
439,1456014482.896942138671875,64216
440,1456014482.94623613357543945312,64888
441,1456014482.99636125564575195312,65576
442,1456014483.0468311309814453125,66272
443,1456014483.09688973426818847656,66952
444,1456014483.1471652984619140625,67640
445,1456014483.19629955291748046875,68312
446,1456014483.24664902687072753906,68992
447,1456014483.29701852798461914062,69672
448,1456014483.34602904319763183594,70328
449,1456014483.39630103111267089844,71000
450,1456014483.44642424583435058594,71656
451,1456014483.49674463272094726562,72312
452,1456014483.54692125320434570312,72952
453,1456014483.59715557098388671875,73592
454,1456014483.64597487449645996094,74200
455,1456014483.69715356826782226562,74824
456,1456014483.74625539779663085938,75416
457,1456014483.79637503623962402344,76000
458,1456014483.84650015830993652344,76584
459,1456014483.8964557647705078125,77144
460,1456014483.94683599472045898438,77696
461,1456014483.99676084518432617188,78232
462,1456014484.04721999168395996094,78752
463,1456014484.09606337547302246094,79248
464,1456014484.1460247039794921875,79736
465,1456014484.19707536697387695312,80208
466,1456014484.24701952934265136719,80664
467,1456014484.29602718353271484375,81088
468,1456014484.34699702262878417969,81512
469,1456014484.39619135856628417969,81896
470,1456014484.44626402854919433594,82272
471,1456014484.49652171134948730469,82632
472,1456014484.54589223861694335938,82960
473,1456014484.59680533409118652344,83280
474,1456014484.64636707305908203125,83568
475,1456014484.69705963134765625,83840
476,1456014484.74658966064453125,84088
477,1456014484.79598927497863769531,84312
478,1456014484.84683370590209960938,84512
479,1456014484.89600372314453125,84688
480,1456014484.9466533660888671875,84848
