id, time (s), size (bits)
0,1456014462.01592969894409179688,48496
1,1456014462.065944671630859375,48168
2,1456014462.11666965484619140625,47856
3,1456014462.16653776168823242188,47576
4,1456014462.21682786941528320312,47312
5,1456014462.26623010635375976562,47080
6,1456014462.31643843650817871094,46864
7,1456014462.36664223670959472656,46664
8,1456014462.41580319404602050781,46504
9,1456014462.46589231491088867188,46352
10,1456014462.51626682281494140625,46232
11,1456014462.56635189056396484375,46128
12,1456014462.616825103759765625,46056
13,1456014462.66601133346557617188,46000
14,1456014462.71628284454345703125,45976
15,1456014462.76646065711975097656,45968
16,1456014462.81659412384033203125,45992
17,1456014462.86625552177429199219,46032
18,1456014462.91655039787292480469,46096
19,1456014462.96580266952514648438,46192
20,1456014463.01581358909606933594,46304
21,1456014463.06595253944396972656,46440
22,1456014463.11604404449462890625,46608
23,1456014463.16644334793090820312,46792
24,1456014463.2166118621826171875,47000
25,1456014463.26678633689880371094,47232
26,1456014463.31620573997497558594,47480
27,1456014463.36635565757751464844,47760
28,1456014463.41674304008483886719,48056
29,1456014463.46573710441589355469,48368
30,1456014463.51615595817565917969,48712
31,1456014463.56640458106994628906,49072
32,1456014463.61594557762145996094,49448
33,1456014463.66623449325561523438,49856
34,1456014463.7163333892822265625,50272
35,1456014463.765834808349609375,50704
36,1456014463.81599330902099609375,51168
37,1456014463.86620116233825683594,51640
38,1456014463.91635179519653320312,52136
39,1456014463.96665668487548828125,52640
40,1456014464.01694846153259277344,53168
41,1456014464.06642985343933105469,53704
42,1456014464.1158313751220703125,54248
43,1456014464.16582822799682617188,54816
44,1456014464.2161865234375,55400
45,1456014464.26645112037658691406,55992
46,1456014464.31575465202331542969,56592
47,1456014464.36580944061279296875,57208
48,1456014464.41612148284912109375,57832
49,1456014464.46632122993469238281,58472
50,1456014464.5168170928955078125,59120
51,1456014464.56606841087341308594,59760
52,1456014464.61628055572509765625,60424
53,1456014464.66671776771545410156,61096
54,1456014464.71577143669128417969,61752
55,1456014464.76596498489379882812,62432
56,1456014464.81619167327880859375,63112
57,1456014464.86652803421020507812,63800
58,1456014464.91680502891540527344,64488
59,1456014464.96633100509643554688,65168
60,1456014465.01657843589782714844,65856
61,1456014465.06679224967956542969,66544
62,1456014465.11611151695251464844,67216
63,1456014465.16642117500305175781,67904
64,1456014465.21572518348693847656,68576
65,1456014465.26587557792663574219,69256
66,1456014465.31612133979797363281,69928
67,1456014465.36630296707153320312,70600
68,1456014465.41683244705200195312,71264
69,1456014465.46613335609436035156,71912
70,1456014465.51625609397888183594,72560
71,1456014465.56659865379333496094,73200
72,1456014465.61677956581115722656,73832
73,1456014465.66618561744689941406,74448
74,1456014465.71643781661987304688,75056
75,1456014465.76599955558776855469,75648
76,1456014465.81624889373779296875,76232
77,1456014465.86658406257629394531,76808
78,1456014465.91674470901489257812,77368
79,1456014465.96682977676391601562,77912
80,1456014466.01615500450134277344,78432
81,1456014466.06638503074645996094,78952
82,1456014466.11663699150085449219,79448
83,1456014466.1666393280029296875,79928
84,1456014466.2169475555419921875,80392
85,1456014466.2659893035888671875,80832
86,1456014466.31618833541870117188,81256
87,1456014466.36643171310424804688,81664
88,1456014466.416484832763671875,82056
89,1456014466.46673512458801269531,82424
90,1456014466.51676464080810546875,82768
91,1456014466.56667828559875488281,83096
92,1456014466.61648583412170410156,83400
93,1456014466.66636419296264648438,83680
94,1456014466.71588993072509765625,83936
95,1456014466.76657867431640625,84176
96,1456014466.8163089752197265625,84392
97,1456014466.86676740646362304688,84592
98,1456014466.91639614105224609375,84760
99,1456014466.96668148040771484375,84904
100,1456014467.01591706275939941406,85024
101,1456014467.06645631790161132812,85128
102,1456014467.11613392829895019531,85200
103,1456014467.16647386550903320312,85256
104,1456014467.21689152717590332031,85280
105,1456014467.26638674736022949219,85288
106,1456014467.3168582916259765625,85264
107,1456014467.36649441719055175781,85224
108,1456014467.41669535636901855469,85152
109,1456014467.46629047393798828125,85064
110,1456014467.51662993431091308594,84952
111,1456014467.56628537178039550781,84808
112,1456014467.61666917800903320312,84648
113,1456014467.66620898246765136719,84464
114,1456014467.71669936180114746094,84256
115,1456014467.76612615585327148438,84024
116,1456014467.81662869453430175781,83768
117,1456014467.86604642868041992188,83496
118,1456014467.91653418540954589844,83200
119,1456014467.96693849563598632812,82880
120,1456014468.01662683486938476562,82544
121,1456014468.06614470481872558594,82184
122,1456014468.11660432815551757812,81800
123,1456014468.16586637496948242188,81408
124,1456014468.21629881858825683594,80984
125,1456014468.26684236526489257812,80544
126,1456014468.3157825469970703125,80096
127,1456014468.36641573905944824219,79616
128,1456014468.41660189628601074219,79120
129,1456014468.46677875518798828125,78616
130,1456014468.51623868942260742188,78096
131,1456014468.5666866302490234375,77552
132,1456014468.61624741554260253906,77000
133,1456014468.66673421859741210938,76432
134,1456014468.7163295745849609375,75856
135,1456014468.76671767234802246094,75256
136,1456014468.81626558303833007812,74664
137,1456014468.8665771484375,74040
138,1456014468.91599059104919433594,73424
139,1456014468.9663600921630859375,72784
140,1456014469.01680994033813476562,72136
141,1456014469.06623935699462890625,71496
142,1456014469.11667275428771972656,70824
143,1456014469.16629052162170410156,70168
144,1456014469.21647810935974121094,69496
145,1456014469.26608967781066894531,68824
146,1456014469.31639456748962402344,68144
147,1456014469.36698937416076660156,67456
148,1456014469.41636157035827636719,66776
149,1456014469.4667911529541015625,66088
150,1456014469.51616120338439941406,65408
151,1456014469.56649708747863769531,64720
152,1456014469.6159725189208984375,64040
153,1456014469.66632485389709472656,63352
154,1456014469.71578812599182128906,62680
155,1456014469.76606798171997070312,62000
156,1456014469.81644272804260253906,61320
157,1456014469.86683034896850585938,60648
158,1456014469.91637825965881347656,59992
159,1456014469.96668744087219238281,59336
160,1456014470.01590275764465332031,58696
161,1456014470.06647491455078125,58056
162,1456014470.11685323715209960938,57424
163,1456014470.16653394699096679688,56808
164,1456014470.21567940711975097656,56208
165,1456014470.26609015464782714844,55608
166,1456014470.31635928153991699219,55024
167,1456014470.36679410934448242188,54448
168,1456014470.41615700721740722656,53896
169,1456014470.46645069122314453125,53344
170,1456014470.51615667343139648438,52824
171,1456014470.56650900840759277344,52304
172,1456014470.61582732200622558594,51816
173,1456014470.66615080833435058594,51336
174,1456014470.71658349037170410156,50864
175,1456014470.76697516441345214844,50416
176,1456014470.81651353836059570312,50000
177,1456014470.86578083038330078125,49600
178,1456014470.91605210304260253906,49208
179,1456014470.9666500091552734375,48832
180,1456014471.01585340499877929688,48496
181,1456014471.06636977195739746094,48168
182,1456014471.11663699150085449219,47856
183,1456014471.16615366935729980469,47576
184,1456014471.21645641326904296875,47312
185,1456014471.26683902740478515625,47072
186,1456014471.316158294677734375,46864
187,1456014471.36646270751953125,46672
188,1456014471.41632223129272460938,46496
189,1456014471.46665048599243164062,46352
190,1456014471.51630139350891113281,46232
191,1456014471.56679081916809082031,46128
192,1456014471.61598491668701171875,46056
193,1456014471.66590118408203125,46000
194,1456014471.71595525741577148438,45976
195,1456014471.76585054397583007812,45968
196,1456014471.81668353080749511719,45992
197,1456014471.86578130722045898438,46032
198,1456014471.91579556465148925781,46096
199,1456014471.96625757217407226562,46192
200,1456014472.01646399497985839844,46304
201,1456014472.06691670417785644531,46448
202,1456014472.11600279808044433594,46608
203,1456014472.1664981842041015625,46792
204,1456014472.21677446365356445312,47000
205,1456014472.26578760147094726562,47224
206,1456014472.31626844406127929688,47480
207,1456014472.36585593223571777344,47760
208,1456014472.41632294654846191406,48056
209,1456014472.46651768684387207031,48376
210,1456014472.51693391799926757812,48720
211,1456014472.56607389450073242188,49072
212,1456014472.616489410400390625,49456
213,1456014472.6668491363525390625,49856
214,1456014472.71587252616882324219,50272
215,1456014472.76633667945861816406,50712
216,1456014472.8166370391845703125,51168
217,1456014472.86598539352416992188,51640
218,1456014472.91612505912780761719,52128
219,1456014472.96652722358703613281,52640
220,1456014473.01675009727478027344,53168
221,1456014473.06631183624267578125,53696
222,1456014473.11661100387573242188,54256
223,1456014473.16668438911437988281,54824
224,1456014473.21611809730529785156,55400
225,1456014473.26633334159851074219,55992
226,1456014473.31680798530578613281,56600
227,1456014473.36588263511657714844,57208
228,1456014473.41617751121520996094,57832
229,1456014473.466350555419921875,58472
230,1456014473.51679253578186035156,59120
231,1456014473.5660114288330078125,59760
232,1456014473.61631822586059570312,60424
233,1456014473.66667389869689941406,61096
234,1456014473.71582746505737304688,61752
235,1456014473.76622915267944335938,62432
236,1456014473.81651949882507324219,63112
237,1456014473.86606335639953613281,63792
238,1456014473.91624736785888671875,64480
239,1456014473.9666728973388671875,65168
240,1456014474.01581478118896484375,65848
241,1456014474.06603765487670898438,66536
242,1456014474.11642289161682128906,67224
243,1456014474.16655898094177246094,67912
244,1456014474.21594405174255371094,68576
245,1456014474.26622653007507324219,69264
246,1456014474.31667637825012207031,69936
247,1456014474.36589074134826660156,70592
248,1456014474.41620588302612304688,71256
249,1456014474.46655797958374023438,71920
250,1456014474.51573348045349121094,72552
251,1456014474.56580066680908203125,73192
252,1456014474.61677074432373046875,73832
253,1456014474.66604924201965332031,74440
254,1456014474.71628165245056152344,75056
255,1456014474.76693701744079589844,75656
256,1456014474.816036224365234375,76232
257,1456014474.86601114273071289062,76800
258,1456014474.9160747528076171875,77360
259,1456014474.96602988243103027344,77904
260,1456014475.01641011238098144531,78440
261,1456014475.06648969650268554688,78952
262,1456014475.11679148674011230469,79448
263,1456014475.16577768325805664062,79920
264,1456014475.21713113784790039062,80392
265,1456014475.26625728607177734375,80832
266,1456014475.31646060943603515625,81256
267,1456014475.3666019439697265625,81664
268,1456014475.41667985916137695312,82056
269,1456014475.465831756591796875,82416
270,1456014475.51582264900207519531,82760
271,1456014475.56656408309936523438,83096
272,1456014475.61629939079284667969,83392
273,1456014475.66617155075073242188,83680
274,1456014475.71675419807434082031,83944
275,1456014475.76644921302795410156,84176
276,1456014475.81602883338928222656,84392
277,1456014475.86648392677307128906,84592
278,1456014475.91607022285461425781,84760
279,1456014475.96640229225158691406,84904
280,1456014476.01692247390747070312,85032
281,1456014476.0663051605224609375,85128
282,1456014476.11700320243835449219,85208
283,1456014476.16643691062927246094,85256
284,1456014476.2168674468994140625,85280
285,1456014476.266262054443359375,85288
286,1456014476.31660580635070800781,85264
287,1456014476.36624288558959960938,85224
288,1456014476.41660404205322265625,85160
289,1456014476.46581888198852539062,85064
290,1456014476.51633810997009277344,84952
291,1456014476.56688404083251953125,84808
292,1456014476.61615753173828125,84648
293,1456014476.6666088104248046875,84464
294,1456014476.71587634086608886719,84256
295,1456014476.76639890670776367188,84024
296,1456014476.81602740287780761719,83776
297,1456014476.86633133888244628906,83496
298,1456014476.91587734222412109375,83200
299,1456014476.96625208854675292969,82880
300,1456014477.01680445671081542969,82536
301,1456014477.06621670722961425781,82184
302,1456014477.11672568321228027344,81800
303,1456014477.16614270210266113281,81400
304,1456014477.2164440155029296875,80984
305,1456014477.266063690185546875,80544
306,1456014477.31645226478576660156,80088
307,1456014477.36609196662902832031,79616
308,1456014477.41649460792541503906,79120
309,1456014477.46605062484741210938,78616
310,1456014477.51646924018859863281,78096
311,1456014477.56700873374938964844,77552
312,1456014477.6163349151611328125,77000
313,1456014477.6666812896728515625,76432
314,1456014477.71623373031616210938,75856
315,1456014477.76661586761474609375,75264
316,1456014477.81625771522521972656,74664
317,1456014477.86657547950744628906,74040
318,1456014477.91613602638244628906,73424
319,1456014477.96654105186462402344,72784
320,1456014478.01698207855224609375,72136
321,1456014478.066539764404296875,71488
322,1456014478.11583089828491210938,70840
323,1456014478.16661882400512695312,70160
324,1456014478.21604466438293457031,69504
325,1456014478.26653575897216796875,68816
326,1456014478.3168697357177734375,68136
327,1456014478.3664455413818359375,67456
328,1456014478.41687321662902832031,66768
329,1456014478.46644282341003417969,66088
330,1456014478.5167522430419921875,65400
331,1456014478.56609106063842773438,64720
332,1456014478.61660027503967285156,64032
333,1456014478.666027069091796875,63352
334,1456014478.7165679931640625,62664
335,1456014478.76682710647583007812,61984
336,1456014478.81631803512573242188,61320
337,1456014478.86662054061889648438,60648
338,1456014478.9161014556884765625,60000
339,1456014478.96650719642639160156,59336
340,1456014479.01674222946166992188,58688
341,1456014479.06593537330627441406,58064
342,1456014479.11626315116882324219,57432
343,1456014479.16689085960388183594,56800
344,1456014479.21630001068115234375,56200
345,1456014479.26680207252502441406,55600
346,1456014479.31616902351379394531,55024
347,1456014479.36664938926696777344,54448
348,1456014479.41597485542297363281,53896
349,1456014479.46635603904724121094,53352
350,1456014479.51587533950805664062,52824
351,1456014479.56619501113891601562,52312
352,1456014479.61662459373474121094,51808
353,1456014479.66600275039672851562,51336
354,1456014479.71655893325805664062,50864
355,1456014479.76679778099060058594,50424
356,1456014479.81636285781860351562,50000
357,1456014479.86669969558715820312,49592
358,1456014479.91597056388854980469,49208
359,1456014479.96669054031372070312,48832
360,1456014480.01610016822814941406,48496
361,1456014480.06664824485778808594,48160
362,1456014480.11602950096130371094,47864
363,1456014480.16653013229370117188,47576
364,1456014480.21681928634643554688,47312
365,1456014480.26638507843017578125,47080
366,1456014480.31687664985656738281,46856
367,1456014480.36632609367370605469,46672
368,1456014480.41581797599792480469,46504
369,1456014480.46610903739929199219,46352
370,1456014480.5167694091796875,46224
371,1456014480.56643533706665039062,46128
372,1456014480.61671853065490722656,46056
373,1456014480.66663694381713867188,46000
374,1456014480.71683073043823242188,45976
375,1456014480.76572656631469726562,45968
376,1456014480.81675505638122558594,45992
377,1456014480.8658046722412109375,46032
378,1456014480.915752410888671875,46096
379,1456014480.965892791748046875,46192
380,1456014481.01617884635925292969,46304
381,1456014481.06672215461730957031,46448
382,1456014481.11587452888488769531,46608
383,1456014481.16626501083374023438,46792
384,1456014481.21651339530944824219,47000
385,1456014481.26666808128356933594,47232
386,1456014481.315883636474609375,47480
387,1456014481.36611700057983398438,47760
388,1456014481.416393280029296875,48056
389,1456014481.4665985107421875,48376
390,1456014481.51694655418395996094,48720
391,1456014481.56608152389526367188,49072
392,1456014481.61611580848693847656,49456
393,1456014481.6662807464599609375,49856
394,1456014481.71651554107666015625,50272
395,1456014481.76584029197692871094,50704
396,1456014481.81579685211181640625,51160
397,1456014481.86606311798095703125,51640
398,1456014481.91626977920532226562,52128
399,1456014481.96686267852783203125,52648
400,1456014482.01611399650573730469,53160
401,1456014482.06642818450927734375,53704
402,1456014482.11667633056640625,54256
403,1456014482.16582274436950683594,54816
404,1456014482.21631574630737304688,55400
405,1456014482.26655435562133789062,55992
406,1456014482.31579256057739257812,56592
407,1456014482.36595439910888671875,57208
408,1456014482.41647863388061523438,57840
409,1456014482.4666748046875,58472
410,1456014482.51593565940856933594,59112
411,1456014482.5661182403564453125,59760
412,1456014482.61638188362121582031,60424
413,1456014482.66682028770446777344,61096
414,1456014482.71579003334045410156,61752
415,1456014482.76614832878112792969,62432
416,1456014482.81644320487976074219,63112
417,1456014482.86706018447875976562,63808
418,1456014482.91631221771240234375,64480
419,1456014482.96662211418151855469,65168
420,1456014483.01691699028015136719,65856
421,1456014483.066219329833984375,66536
422,1456014483.1166973114013671875,67224
423,1456014483.16585326194763183594,67896
424,1456014483.216217041015625,68584
425,1456014483.266155242919921875,69256
426,1456014483.31668353080749511719,69936
427,1456014483.36572194099426269531,70592
428,1456014483.41695451736450195312,71272
429,1456014483.4661693572998046875,71912
430,1456014483.51644539833068847656,72560
431,1456014483.56687235832214355469,73208
432,1456014483.61595606803894042969,73824
433,1456014483.66618609428405761719,74448
434,1456014483.71633458137512207031,75056
435,1456014483.7669467926025390625,75656
436,1456014483.81583666801452636719,76232
437,1456014483.86690521240234375,76816
438,1456014483.91583657264709472656,77360
439,1456014483.96573495864868164062,77904
440,1456014484.01584625244140625,78432
441,1456014484.06590962409973144531,78944
442,1456014484.11627840995788574219,79448
443,1456014484.16632437705993652344,79928
444,1456014484.21659374237060546875,80392
445,1456014484.26674413681030273438,80832
446,1456014484.31592798233032226562,81256
447,1456014484.3660297393798828125,81664
448,1456014484.41622567176818847656,82048
449,1456014484.46655058860778808594,82424
450,1456014484.51588535308837890625,82760
451,1456014484.56674599647521972656,83096
452,1456014484.61644220352172851562,83400
453,1456014484.66643762588500976562,83680
454,1456014484.71619367599487304688,83936
455,1456014484.7668285369873046875,84184
456,1456014484.81643390655517578125,84392
457,1456014484.86673879623413085938,84592
458,1456014484.916412353515625,84760
459,1456014484.96681046485900878906,84904
460,1456014485.01644062995910644531,85024
461,1456014485.06680274009704589844,85128
462,1456014485.11646175384521484375,85200
463,1456014485.16690325736999511719,85256
464,1456014485.21649336814880371094,85280
465,1456014485.26606631278991699219,85288
466,1456014485.31653499603271484375,85264
467,1456014485.36588835716247558594,85224
468,1456014485.41619038581848144531,85160
469,1456014485.46580743789672851562,85064
470,1456014485.51614236831665039062,84952
471,1456014485.56679058074951171875,84808
472,1456014485.6162586212158203125,84648
473,1456014485.66671466827392578125,84464
474,1456014485.71612787246704101562,84256
475,1456014485.76648473739624023438,84024
476,1456014485.81599640846252441406,83776
477,1456014485.86637639999389648438,83496
478,1456014485.91588950157165527344,83200
479,1456014485.96626138687133789062,82880
480,1456014486.0167789459228515625,82536
