id, time (s), size (bits)
0,1455475632.45043659210205078125,480
1,1455475632.51998496055603027344,384
2,1455475632.59051156044006347656,384
3,1455475632.66007375717163085938,480
4,1455475632.73051548004150390625,584
5,1455475632.80086469650268554688,608
6,1455475632.87000989913940429688,520
7,1455475632.93987989425659179688,416
8,1455475633.01119494438171386719,376
9,1455475633.08073639869689941406,440
10,1455475633.15051221847534179688,552
11,1455475633.221435546875,608
12,1455475633.29024720191955566406,560
13,1455475633.36132860183715820312,448
14,1455475633.43050718307495117188,376
15,1455475633.50041723251342773438,408
16,1455475633.56997156143188476562,520
17,1455475633.64171051979064941406,608
18,1455475633.71104788780212402344,592
19,1455475633.78103947639465332031,488
20,1455475633.85072588920593261719,392
21,1455475633.92027115821838378906,384
22,1455475633.98996090888977050781,472
23,1455475634.06087327003479003906,584
24,1455475634.130702972412109375,608
25,1455475634.20042109489440917969,528
26,1455475634.26986598968505859375,416
27,1455475634.33996748924255371094,376
28,1455475634.41080570220947265625,440
29,1455475634.481792449951171875,552
30,1455475634.55091190338134765625,608
31,1455475634.62073159217834472656,568
32,1455475634.6897525787353515625,456
33,1455475634.76182579994201660156,376
34,1455475634.83104825019836425781,408
35,1455475634.90070414543151855469,512
36,1455475634.97024965286254882812,600
37,1455475635.04070067405700683594,560
38,1455475635.11127972602844238281,608
39,1455475635.18139982223510742188,560
40,1455475635.249980926513671875,448
41,1455475635.32143163681030273438,376
42,1455475635.39059543609619140625,408
43,1455475635.46119141578674316406,520
44,1455475635.53058886528015136719,608
45,1455475635.60002088546752929688,592
46,1455475635.67101693153381347656,488
47,1455475635.74143767356872558594,384
48,1455475635.81064081192016601562,384
49,1455475635.88111162185668945312,480
50,1455475635.95034265518188476562,584
51,1455475636.02067327499389648438,608
52,1455475636.09139466285705566406,528
53,1455475636.16244029998779296875,416
54,1455475636.23056268692016601562,376
55,1455475636.30062198638916015625,440
56,1455475636.37052822113037109375,552
57,1455475636.44009518623352050781,608
58,1455475636.51032352447509765625,560
59,1455475636.58345842361450195312,448
60,1455475636.65015745162963867188,376
61,1455475636.72152614593505859375,408
62,1455475636.79084157943725585938,512
63,1455475636.85994243621826171875,600
64,1455475636.93118119239807128906,592
65,1455475637.00088667869567871094,488
66,1455475637.06988573074340820312,392
67,1455475637.13966083526611328125,384
68,1455475637.21039915084838867188,472
69,1455475637.28054165840148925781,584
70,1455475637.34982061386108398438,608
71,1455475637.421718597412109375,528
72,1455475637.49004673957824707031,416
73,1455475637.56010150909423828125,376
74,1455475637.630828857421875,432
75,1455475637.70006275177001953125,544
76,1455475637.77099347114562988281,608
77,1455475637.84190011024475097656,568
78,1455475637.91040778160095214844,456
79,1455475637.98138761520385742188,376
80,1455475638.05015587806701660156,400
81,1455475638.12040424346923828125,504
82,1455475638.19075608253479003906,600
83,1455475638.26176500320434570312,592
84,1455475638.33083963394165039062,496
85,1455475638.40028238296508789062,392
86,1455475638.47030806541442871094,376
87,1455475638.54055237770080566406,464
88,1455475638.61144399642944335938,576
89,1455475638.68201732635498046875,608
90,1455475638.75022077560424804688,536
91,1455475638.82003831863403320312,424
92,1455475638.89076018333435058594,376
93,1455475638.960521697998046875,432
94,1455475639.03080296516418457031,544
95,1455475639.10150694847106933594,608
96,1455475639.16993546485900878906,576
97,1455475639.2399654388427734375,464
98,1455475639.3101558685302734375,376
99,1455475639.38092470169067382812,400
100,1455475639.45009374618530273438,504
101,1455475639.52265620231628417969,600
102,1455475639.59033656120300292969,600
103,1455475639.66031122207641601562,504
104,1455475639.73111796379089355469,400
105,1455475639.79967832565307617188,376
106,1455475639.87024927139282226562,464
107,1455475639.94163775444030761719,576
108,1455475640.00986075401306152344,608
109,1455475640.08129596710205078125,544
110,1455475640.15065670013427734375,432
111,1455475640.22022795677185058594,376
112,1455475640.290309906005859375,424
113,1455475640.36224150657653808594,536
114,1455475640.4306354522705078125,608
115,1455475640.49971270561218261719,576
116,1455475640.57021856307983398438,464
117,1455475640.64019036293029785156,384
118,1455475640.71204471588134765625,392
119,1455475640.78203988075256347656,496
120,1455475640.85025429725646972656,592
121,1455475640.92047667503356933594,600
122,1455475640.99078536033630371094,504
123,1455475641.06146001815795898438,400
124,1455475641.13207030296325683594,376
125,1455475641.20070505142211914062,456
126,1455475641.27034926414489746094,568
127,1455475641.33988308906555175781,608
128,1455475641.41150355339050292969,544
129,1455475641.48126316070556640625,432
130,1455475641.55029821395874023438,376
131,1455475641.62126278877258300781,424
132,1455475641.6899280548095703125,528
133,1455475641.76109814643859863281,608
134,1455475641.8306598663330078125,584
135,1455475641.90063047409057617188,472
136,1455475641.97013831138610839844,384
137,1455475642.041667938232421875,392
138,1455475642.11100101470947265625,488
139,1455475642.18059849739074707031,592
140,1455475642.25010919570922851562,600
141,1455475642.32048010826110839844,512
142,1455475642.3897991180419921875,408
143,1455475642.46300721168518066406,376
144,1455475642.53208208084106445312,456
145,1455475642.60026502609252929688,560
146,1455475642.66971349716186523438,608
147,1455475642.74070477485656738281,552
148,1455475642.80980920791625976562,440
149,1455475642.88155484199523925781,376
150,1455475642.95056366920471191406,416
151,1455475643.02019214630126953125,528
152,1455475643.09033966064453125,608
153,1455475643.16175055503845214844,584
154,1455475643.23203063011169433594,472
155,1455475643.30121779441833496094,384
156,1455475643.36965203285217285156,384
157,1455475643.44006848335266113281,488
158,1455475643.51170969009399414062,592
159,1455475643.58137154579162597656,608
160,1455475643.65073251724243164062,520
161,1455475643.72134876251220703125,408
162,1455475643.78969311714172363281,376
163,1455475643.86253786087036132812,448
164,1455475643.93067455291748046875,560
165,1455475643.99966263771057128906,608
166,1455475644.07083463668823242188,592
167,1455475644.14161157608032226562,600
168,1455475644.21169257164001464844,512
169,1455475644.28089046478271484375,400
170,1455475644.35044693946838378906,376
171,1455475644.42018198966979980469,448
172,1455475644.49074435234069824219,568
173,1455475644.56273293495178222656,608
174,1455475644.63082861900329589844,552
175,1455475644.70060777664184570312,440
176,1455475644.7704830169677734375,376
177,1455475644.84147691726684570312,416
178,1455475644.91050457954406738281,528
179,1455475644.98102974891662597656,608
180,1455475645.0499973297119140625,584
181,1455475645.1200923919677734375,480
182,1455475645.19080686569213867188,384
183,1455475645.26073765754699707031,392
184,1455475645.33089590072631835938,488
185,1455475645.40100836753845214844,592
186,1455475645.47029852867126464844,608
187,1455475645.54025983810424804688,520
188,1455475645.61123418807983398438,408
189,1455475645.68227601051330566406,376
190,1455475645.749908447265625,448
191,1455475645.82121396064758300781,560
192,1455475645.88997316360473632812,608
193,1455475645.96059083938598632812,552
194,1455475646.03137922286987304688,440
195,1455475646.10047411918640136719,376
196,1455475646.17050623893737792969,408
197,1455475646.24086427688598632812,520
198,1455475646.31099224090576171875,608
199,1455475646.38097882270812988281,584
200,1455475646.45051717758178710938,480
201,1455475646.52002120018005371094,384
202,1455475646.58996224403381347656,384
203,1455475646.66102528572082519531,480
204,1455475646.73066020011901855469,584
205,1455475646.80039572715759277344,608
206,1455475646.87201595306396484375,520
207,1455475646.94072031974792480469,408
208,1455475647.00976610183715820312,376
209,1455475647.08178043365478515625,440
210,1455475647.15052676200866699219,552
211,1455475647.22027468681335449219,608
212,1455475647.29013395309448242188,560
213,1455475647.36106348037719726562,448
214,1455475647.43199515342712402344,376
215,1455475647.50131940841674804688,408
216,1455475647.57018065452575683594,520
217,1455475647.64046192169189453125,600
218,1455475647.70966291427612304688,592
219,1455475647.780651092529296875,488
220,1455475647.85013461112976074219,392
221,1455475647.92170739173889160156,384
222,1455475647.99034523963928222656,472
223,1455475648.06182742118835449219,584
224,1455475648.1309566497802734375,608
225,1455475648.20002913475036621094,528
226,1455475648.27048945426940917969,416
227,1455475648.34065008163452148438,376
228,1455475648.41131687164306640625,440
229,1455475648.48106479644775390625,552
230,1455475648.55015516281127929688,608
231,1455475648.62043356895446777344,568
232,1455475648.69011735916137695312,456
233,1455475648.76100754737854003906,376
234,1455475648.83179736137390136719,408
235,1455475648.90019083023071289062,512
236,1455475648.97053766250610351562,600
237,1455475649.03970861434936523438,592
238,1455475649.11118483543395996094,488
239,1455475649.18158888816833496094,392
240,1455475649.24999928474426269531,384
241,1455475649.32032442092895507812,472
242,1455475649.3902130126953125,576
243,1455475649.4617595672607421875,608
244,1455475649.53087186813354492188,536
245,1455475649.60116863250732421875,416
246,1455475649.67069649696350097656,376
247,1455475649.74025034904479980469,432
248,1455475649.81053781509399414062,544
249,1455475649.88131237030029296875,608
250,1455475649.95012974739074707031,568
251,1455475650.02166032791137695312,456
252,1455475650.09042954444885253906,376
253,1455475650.16185092926025390625,400
254,1455475650.23117470741271972656,504
255,1455475650.30008769035339355469,600
256,1455475650.37073683738708496094,592
257,1455475650.44116616249084472656,496
258,1455475650.51111698150634765625,392
259,1455475650.58118081092834472656,376
260,1455475650.64997124671936035156,464
261,1455475650.72061085700988769531,576
262,1455475650.78992247581481933594,608
263,1455475650.86301827430725097656,536
264,1455475650.93202662467956542969,424
265,1455475651.00049805641174316406,376
266,1455475651.06993770599365234375,424
267,1455475651.14029073715209960938,544
268,1455475651.21208214759826660156,608
269,1455475651.28194928169250488281,568
270,1455475651.34963297843933105469,464
271,1455475651.42057895660400390625,376
272,1455475651.49039483070373535156,400
273,1455475651.5620880126953125,504
274,1455475651.63092875480651855469,600
275,1455475651.70098018646240234375,600
276,1455475651.77070641517639160156,504
277,1455475651.83989858627319335938,400
278,1455475651.9106121063232421875,376
279,1455475651.98077368736267089844,456
280,1455475652.05015730857849121094,568
281,1455475652.12087392807006835938,608
282,1455475652.19031548500061035156,544
283,1455475652.26197171211242675781,432
284,1455475652.33051013946533203125,376
285,1455475652.40015673637390136719,424
286,1455475652.46988248825073242188,536
287,1455475652.54167652130126953125,608
288,1455475652.61119365692138671875,576
289,1455475652.68203806877136230469,464
290,1455475652.75033426284790039062,384
291,1455475652.82008814811706542969,392
292,1455475652.89042592048645019531,496
293,1455475652.96217131614685058594,592
294,1455475653.03069639205932617188,544
295,1455475653.10076880455017089844,608
296,1455475653.17010164260864257812,576
297,1455475653.24044895172119140625,464
298,1455475653.31096148490905761719,376
299,1455475653.38183832168579101562,400
300,1455475653.45087218284606933594,504
301,1455475653.52064442634582519531,600
302,1455475653.59067583084106445312,600
303,1455475653.66148591041564941406,504
304,1455475653.73091435432434082031,400
305,1455475653.80222558975219726562,376
306,1455475653.87038302421569824219,464
307,1455475653.93982076644897460938,568
308,1455475654.01057982444763183594,608
309,1455475654.08051276206970214844,544
310,1455475654.15038061141967773438,432
311,1455475654.221294403076171875,376
312,1455475654.28987264633178710938,424
313,1455475654.36069035530090332031,536
314,1455475654.43135094642639160156,608
315,1455475654.50043225288391113281,576
316,1455475654.57043766975402832031,464
317,1455475654.64118647575378417969,376
318,1455475654.71037745475769042969,392
319,1455475654.78146696090698242188,496
320,1455475654.85012269020080566406,592
321,1455475654.92020559310913085938,600
322,1455475654.99279189109802246094,504
323,1455475655.06212210655212402344,400
324,1455475655.13183450698852539062,376
325,1455475655.20009613037109375,456
326,1455475655.26998734474182128906,568
327,1455475655.34041738510131835938,608
328,1455475655.41010046005249023438,552
329,1455475655.48117995262145996094,432
330,1455475655.54997038841247558594,376
331,1455475655.62062954902648925781,416
332,1455475655.69010233879089355469,528
333,1455475655.76018023490905761719,608
334,1455475655.83069920539855957031,576
335,1455475655.90162611007690429688,472
336,1455475655.97038531303405761719,384
337,1455475656.039775848388671875,392
338,1455475656.11242699623107910156,496
339,1455475656.18092703819274902344,592
340,1455475656.24995565414428710938,600
341,1455475656.32139492034912109375,512
342,1455475656.39056324958801269531,408
343,1455475656.4615535736083984375,376
344,1455475656.53074336051940917969,448
345,1455475656.60070586204528808594,560
346,1455475656.67055106163024902344,608
347,1455475656.74114632606506347656,552
348,1455475656.81023502349853515625,440
349,1455475656.88097691535949707031,376
350,1455475656.95087218284606933594,416
351,1455475657.02079749107360839844,528
352,1455475657.09000921249389648438,608
353,1455475657.162197113037109375,584
354,1455475657.23088669776916503906,480
355,1455475657.3000164031982421875,384
356,1455475657.37035036087036132812,392
357,1455475657.44071030616760253906,488
358,1455475657.51060986518859863281,592
359,1455475657.58141660690307617188,608
360,1455475657.65049457550048828125,520
361,1455475657.72048330307006835938,408
362,1455475657.79046535491943359375,376
363,1455475657.85961437225341796875,440
364,1455475657.93126177787780761719,560
365,1455475658.00162172317504882812,608
366,1455475658.06979203224182128906,560
367,1455475658.14021944999694824219,448
368,1455475658.20974087715148925781,376
369,1455475658.28083825111389160156,408
370,1455475658.35033750534057617188,520
371,1455475658.42086505889892578125,608
372,1455475658.49014568328857421875,584
373,1455475658.56143808364868164062,480
374,1455475658.630535125732421875,384
375,1455475658.70020389556884765625,384
376,1455475658.77021074295043945312,480
377,1455475658.84152460098266601562,584
378,1455475658.91130280494689941406,608
379,1455475658.98110556602478027344,520
380,1455475659.05019736289978027344,416
381,1455475659.12032794952392578125,376
382,1455475659.18969583511352539062,440
383,1455475659.26304292678833007812,560
384,1455475659.33073592185974121094,608
385,1455475659.400146484375,560
386,1455475659.4698944091796875,448
387,1455475659.54032611846923828125,376
388,1455475659.60991001129150390625,408
389,1455475659.68193984031677246094,520
390,1455475659.75068020820617675781,600
391,1455475659.82059931755065917969,592
392,1455475659.89049172401428222656,488
393,1455475659.95997476577758789062,392
394,1455475660.03069663047790527344,384
395,1455475660.10115981101989746094,472
396,1455475660.16975545883178710938,584
397,1455475660.24045777320861816406,608
398,1455475660.31031322479248046875,528
399,1455475660.38121652603149414062,416
400,1455475660.44981455802917480469,376
401,1455475660.52157640457153320312,440
402,1455475660.59071898460388183594,552
403,1455475660.66010570526123046875,608
404,1455475660.7305583953857421875,568
405,1455475660.79970240592956542969,456
406,1455475660.87024188041687011719,376
407,1455475660.94104552268981933594,400
408,1455475661.01028990745544433594,512
409,1455475661.08066320419311523438,600
410,1455475661.15037035942077636719,592
411,1455475661.21995401382446289062,496
412,1455475661.29026913642883300781,392
413,1455475661.36142420768737792969,384
414,1455475661.43092656135559082031,472
415,1455475661.50082707405090332031,576
416,1455475661.57014560699462890625,608
417,1455475661.64052248001098632812,536
418,1455475661.7102832794189453125,424
419,1455475661.78141856193542480469,376
420,1455475661.85171341896057128906,432
421,1455475661.92019128799438476562,544
422,1455475661.99074530601501464844,608
423,1455475662.06038880348205566406,584
424,1455475662.13084173202514648438,608
425,1455475662.20116639137268066406,528
426,1455475662.26989030838012695312,416
427,1455475662.34000110626220703125,376
428,1455475662.41057801246643066406,440
429,1455475662.48042416572570800781,552
430,1455475662.55049467086791992188,608
431,1455475662.62110924720764160156,568
432,1455475662.69016385078430175781,456
433,1455475662.75978827476501464844,376
434,1455475662.83117008209228515625,408
435,1455475662.89989495277404785156,512
436,1455475662.97063231468200683594,600
437,1455475663.04135775566101074219,592
438,1455475663.11173129081726074219,488
439,1455475663.18115830421447753906,392
440,1455475663.2507190704345703125,384
441,1455475663.31987595558166503906,472
442,1455475663.39007067680358886719,576
443,1455475663.46143555641174316406,608
444,1455475663.5306529998779296875,536
445,1455475663.60009598731994628906,424
446,1455475663.67055678367614746094,376
447,1455475663.74004459381103515625,432
448,1455475663.81018137931823730469,544
449,1455475663.88183426856994628906,608
450,1455475663.95090484619140625,568
451,1455475664.02043414115905761719,456
452,1455475664.09056758880615234375,376
453,1455475664.15980553627014160156,400
454,1455475664.23070120811462402344,504
455,1455475664.30079412460327148438,600
456,1455475664.37089586257934570312,592
457,1455475664.72550678253173828125,584
458,1455475664.73171257972717285156,584
459,1455475664.7975616455078125,608
460,1455475664.86667227745056152344,528
461,1455475664.93683338165283203125,416
462,1455475665.00764918327331542969,376
463,1455475665.07743930816650390625,440
464,1455475665.14701890945434570312,552
465,1455475665.21754026412963867188,608
466,1455475665.28682088851928710938,568
467,1455475665.35664916038513183594,456
468,1455475665.42671966552734375,376
469,1455475665.49715256690979003906,400
470,1455475665.56759738922119140625,512
471,1455475665.63712978363037109375,600
472,1455475665.70727610588073730469,592
473,1455475665.77689313888549804688,496
474,1455475665.84727311134338378906,392
475,1455475665.91749358177185058594,384
476,1455475665.98717284202575683594,472
477,1455475666.05655598640441894531,576
478,1455475666.12726426124572753906,608
479,1455475666.19656705856323242188,536
480,1455475666.26776909828186035156,424
481,1455475666.33750295639038085938,376
482,1455475666.40697145462036132812,432
483,1455475666.47831082344055175781,544
484,1455475666.54675173759460449219,608
485,1455475666.61722230911254882812,568
486,1455475666.68704628944396972656,456
487,1455475666.75754284858703613281,376
488,1455475666.82706689834594726562,400
489,1455475666.89722418785095214844,504
490,1455475666.96757721900939941406,600
491,1455475667.03695726394653320312,600
492,1455475667.10707950592041015625,496
493,1455475667.17736935615539550781,392
494,1455475667.24707484245300292969,376
495,1455475667.31668972969055175781,464
496,1455475667.38736510276794433594,576
497,1455475667.45675897598266601562,608
498,1455475667.52684068679809570312,536
499,1455475667.59755849838256835938,424
500,1455475667.66753172874450683594,376
501,1455475667.73720574378967285156,424
502,1455475667.80719256401062011719,544
503,1455475667.87696361541748046875,608
