id, time (s), size (bits)
0,1455475632.08304381370544433594,384
1,1455475632.14229035377502441406,384
2,1455475632.20231366157531738281,456
3,1455475632.26325297355651855469,560
4,1455475632.32328271865844726562,608
5,1455475632.38272571563720703125,584
6,1455475632.44241166114807128906,496
7,1455475632.50225567817687988281,408
8,1455475632.562503814697265625,376
9,1455475632.62294650077819824219,424
10,1455475632.68245911598205566406,520
11,1455475632.74252796173095703125,600
12,1455475632.80290293693542480469,608
13,1455475632.86279058456420898438,536
14,1455475632.92320013046264648438,440
15,1455475632.98291420936584472656,376
16,1455475633.04254627227783203125,392
17,1455475633.10246753692626953125,480
18,1455475633.1627025604248046875,568
19,1455475633.22306108474731445312,608
20,1455475633.28290081024169921875,568
21,1455475633.3422222137451171875,480
22,1455475633.40303134918212890625,392
23,1455475633.46275806427001953125,376
24,1455475633.52458310127258300781,440
25,1455475633.58294582366943359375,536
26,1455475633.642826080322265625,608
27,1455475633.7032184600830078125,600
28,1455475633.76262402534484863281,520
29,1455475633.82285761833190917969,424
30,1455475633.88247394561767578125,376
31,1455475633.94232940673828125,408
32,1455475634.00285410881042480469,496
33,1455475634.06230139732360839844,584
34,1455475634.1236972808837890625,608
35,1455475634.18236684799194335938,560
36,1455475634.24271869659423828125,456
37,1455475634.30259084701538085938,384
38,1455475634.362216949462890625,384
39,1455475634.42346525192260742188,456
40,1455475634.48302960395812988281,552
41,1455475634.54220414161682128906,608
42,1455475634.60237908363342285156,584
43,1455475634.6626682281494140625,496
44,1455475634.72291779518127441406,408
45,1455475634.7824077606201171875,376
46,1455475634.8420009613037109375,416
47,1455475634.902973175048828125,512
48,1455475634.96287465095520019531,592
49,1455475635.02386927604675292969,528
50,1455475635.08202219009399414062,600
51,1455475635.1426944732666015625,600
52,1455475635.20235800743103027344,528
53,1455475635.26229119300842285156,424
54,1455475635.32347393035888671875,376
55,1455475635.38263654708862304688,400
56,1455475635.44229626655578613281,488
57,1455475635.50282907485961914062,584
58,1455475635.56213164329528808594,608
59,1455475635.62347960472106933594,560
60,1455475635.682422637939453125,464
61,1455475635.74291205406188964844,384
62,1455475635.80307698249816894531,376
63,1455475635.86454653739929199219,448
64,1455475635.92287659645080566406,544
65,1455475635.9820880889892578125,608
66,1455475636.04279184341430664062,592
67,1455475636.10312819480895996094,504
68,1455475636.16309261322021484375,408
69,1455475636.22313904762268066406,376
70,1455475636.28247785568237304688,416
71,1455475636.34282732009887695312,504
72,1455475636.40228533744812011719,592
73,1455475636.46239471435546875,608
74,1455475636.52293229103088378906,544
75,1455475636.58281850814819335938,448
76,1455475636.64317274093627929688,376
77,1455475636.70313549041748046875,384
78,1455475636.76285862922668457031,464
79,1455475636.82318663597106933594,560
80,1455475636.88207364082336425781,608
81,1455475636.94318604469299316406,576
82,1455475637.00332665443420410156,488
83,1455475637.06250786781311035156,400
84,1455475637.12369084358215332031,376
85,1455475637.18234419822692871094,424
86,1455475637.24207472801208496094,528
87,1455475637.30238199234008789062,600
88,1455475637.36304736137390136719,600
89,1455475637.42294287681579589844,528
90,1455475637.48279786109924316406,432
91,1455475637.54297399520874023438,376
92,1455475637.60209560394287109375,400
93,1455475637.66302156448364257812,488
94,1455475637.72629547119140625,584
95,1455475637.78271055221557617188,608
96,1455475637.84292078018188476562,568
97,1455475637.90294170379638671875,472
98,1455475637.96261882781982421875,392
99,1455475638.02310633659362792969,376
100,1455475638.0832347869873046875,448
101,1455475638.14291143417358398438,544
102,1455475638.20206451416015625,608
103,1455475638.26277852058410644531,592
104,1455475638.32353949546813964844,512
105,1455475638.38412141799926757812,416
106,1455475638.44295382499694824219,376
107,1455475638.50272488594055175781,408
108,1455475638.56257534027099609375,504
109,1455475638.62344312667846679688,592
110,1455475638.68290352821350097656,608
111,1455475638.74292516708374023438,552
112,1455475638.80265402793884277344,448
113,1455475638.8626194000244140625,384
114,1455475638.92328381538391113281,384
115,1455475638.98329997062683105469,464
116,1455475639.0429210662841796875,560
117,1455475639.10249423980712890625,608
118,1455475639.16298604011535644531,584
119,1455475639.22327327728271484375,488
120,1455475639.28264975547790527344,400
121,1455475639.34306240081787109375,376
122,1455475639.4031524658203125,424
123,1455475639.46248102188110351562,520
124,1455475639.52360391616821289062,600
125,1455475639.5832386016845703125,600
126,1455475639.64322352409362792969,528
127,1455475639.70329546928405761719,432
128,1455475639.76293063163757324219,376
129,1455475639.82377910614013671875,400
130,1455475639.88205957412719726562,480
131,1455475639.94379687309265136719,576
132,1455475640.00341176986694335938,608
133,1455475640.06292629241943359375,568
134,1455475640.12341403961181640625,472
135,1455475640.1822662353515625,392
136,1455475640.24208402633666992188,376
137,1455475640.30291771888732910156,440
138,1455475640.36295962333679199219,544
139,1455475640.42355799674987792969,608
140,1455475640.48240733146667480469,592
141,1455475640.54250359535217285156,512
142,1455475640.60230159759521484375,416
143,1455475640.66260790824890136719,376
144,1455475640.72432446479797363281,408
145,1455475640.78287220001220703125,504
146,1455475640.84213805198669433594,584
147,1455475640.90243172645568847656,608
148,1455475640.96236729621887207031,552
149,1455475641.0242404937744140625,448
150,1455475641.08269834518432617188,384
151,1455475641.14252519607543945312,384
152,1455475641.202350616455078125,456
153,1455475641.26302075386047363281,560
154,1455475641.32327890396118164062,608
155,1455475641.38281273841857910156,584
156,1455475641.44227099418640136719,496
157,1455475641.50278782844543457031,400
158,1455475641.56297159194946289062,376
159,1455475641.62351918220520019531,424
160,1455475641.68230342864990234375,520
161,1455475641.74249792098999023438,600
162,1455475641.80296254158020019531,608
163,1455475641.862640380859375,536
164,1455475641.92277216911315917969,440
165,1455475641.98261761665344238281,376
166,1455475642.04198932647705078125,392
167,1455475642.10269999504089355469,480
168,1455475642.16303181648254394531,576
169,1455475642.22318339347839355469,608
170,1455475642.28253650665283203125,568
171,1455475642.34245252609252929688,480
172,1455475642.40304541587829589844,392
173,1455475642.46219778060913085938,376
174,1455475642.52377724647521972656,440
175,1455475642.58248400688171386719,536
176,1455475642.6425914764404296875,608
177,1455475642.70290088653564453125,600
178,1455475642.7626667022705078125,520
179,1455475642.82310819625854492188,424
180,1455475642.88305211067199707031,376
181,1455475642.94240975379943847656,408
182,1455475643.00298857688903808594,496
183,1455475643.063182830810546875,584
184,1455475643.12334871292114257812,608
185,1455475643.18306803703308105469,552
186,1455475643.24269962310791015625,456
187,1455475643.3025798797607421875,384
188,1455475643.363285064697265625,384
189,1455475643.42328691482543945312,456
190,1455475643.48266291618347167969,552
191,1455475643.54217195510864257812,608
192,1455475643.60285925865173339844,584
193,1455475643.66228485107421875,496
194,1455475643.72361326217651367188,408
195,1455475643.78292298316955566406,376
196,1455475643.84197211265563964844,416
197,1455475643.90273928642272949219,512
198,1455475643.9622249603271484375,592
199,1455475644.02354073524475097656,528
200,1455475644.08270573616027832031,600
201,1455475644.1420421600341796875,600
202,1455475644.20291614532470703125,528
203,1455475644.26212835311889648438,424
204,1455475644.32363986968994140625,376
205,1455475644.38399624824523925781,400
206,1455475644.44276213645935058594,488
207,1455475644.50285983085632324219,584
208,1455475644.56230854988098144531,608
209,1455475644.62354516983032226562,560
210,1455475644.68286061286926269531,464
211,1455475644.74307727813720703125,384
212,1455475644.80217337608337402344,376
213,1455475644.86251044273376464844,448
214,1455475644.92288446426391601562,544
215,1455475644.98260736465454101562,608
216,1455475645.04426813125610351562,592
217,1455475645.10249924659729003906,504
218,1455475645.1626911163330078125,416
219,1455475645.22491860389709472656,376
220,1455475645.2824497222900390625,416
221,1455475645.34297680854797363281,512
222,1455475645.4025554656982421875,592
223,1455475645.46323299407958984375,608
224,1455475645.52338171005249023438,544
225,1455475645.5829315185546875,448
226,1455475645.64302682876586914062,376
227,1455475645.70254945755004882812,384
228,1455475645.76296734809875488281,464
229,1455475645.82286834716796875,560
230,1455475645.88258862495422363281,608
231,1455475645.94298458099365234375,576
232,1455475646.00341463088989257812,488
233,1455475646.06277728080749511719,400
234,1455475646.12367606163024902344,376
235,1455475646.18307566642761230469,432
236,1455475646.2430400848388671875,528
237,1455475646.3032436370849609375,600
238,1455475646.36417675018310546875,600
239,1455475646.42361235618591308594,528
240,1455475646.48237252235412597656,432
241,1455475646.54268169403076171875,376
242,1455475646.60287833213806152344,400
243,1455475646.66328144073486328125,488
244,1455475646.72343349456787109375,576
245,1455475646.7822704315185546875,608
246,1455475646.84309601783752441406,568
247,1455475646.90247273445129394531,472
248,1455475646.96298623085021972656,392
249,1455475647.02301859855651855469,376
250,1455475647.08250856399536132812,448
251,1455475647.14264011383056640625,544
252,1455475647.20274233818054199219,608
253,1455475647.26211714744567871094,592
254,1455475647.32279467582702636719,512
255,1455475647.38280463218688964844,416
256,1455475647.44232630729675292969,376
257,1455475647.5023250579833984375,408
258,1455475647.56314492225646972656,504
259,1455475647.62335634231567382812,592
260,1455475647.68269109725952148438,608
261,1455475647.74299168586730957031,552
262,1455475647.80233693122863769531,448
263,1455475647.86282134056091308594,384
264,1455475647.92274928092956542969,384
265,1455475647.98347997665405273438,464
266,1455475648.04284191131591796875,560
267,1455475648.10288953781127929688,608
268,1455475648.16204786300659179688,584
269,1455475648.22301578521728515625,488
270,1455475648.28218293190002441406,400
271,1455475648.3431835174560546875,376
272,1455475648.40258145332336425781,424
273,1455475648.46240997314453125,520
274,1455475648.52371931076049804688,600
275,1455475648.58288478851318359375,600
276,1455475648.64260339736938476562,536
277,1455475648.70272684097290039062,432
278,1455475648.76297760009765625,376
279,1455475648.82310581207275390625,392
280,1455475648.88240909576416015625,480
281,1455475648.94313144683837890625,576
282,1455475649.00320672988891601562,608
283,1455475649.06302642822265625,568
284,1455475649.12313866615295410156,472
285,1455475649.1829681396484375,392
286,1455475649.24315738677978515625,376
287,1455475649.30313134193420410156,440
288,1455475649.36218786239624023438,536
289,1455475649.4234218597412109375,608
290,1455475649.48231577873229980469,592
291,1455475649.54344058036804199219,512
292,1455475649.602352142333984375,416
293,1455475649.66479921340942382812,376
294,1455475649.72441339492797851562,408
295,1455475649.782562255859375,504
296,1455475649.84279179573059082031,584
297,1455475649.90294408798217773438,608
298,1455475649.96277928352355957031,552
299,1455475650.02337217330932617188,456
300,1455475650.08222746849060058594,384
301,1455475650.14252638816833496094,384
302,1455475650.20209264755249023438,456
303,1455475650.2628383636474609375,560
304,1455475650.32310318946838378906,608
305,1455475650.38235735893249511719,584
306,1455475650.44275975227355957031,496
307,1455475650.50318789482116699219,400
308,1455475650.56244659423828125,376
309,1455475650.62358641624450683594,424
310,1455475650.68238115310668945312,520
311,1455475650.7421245574951171875,600
312,1455475650.80277466773986816406,608
313,1455475650.86308264732360839844,536
314,1455475650.92315936088562011719,440
315,1455475650.98261141777038574219,376
316,1455475651.04253649711608886719,392
317,1455475651.10251164436340332031,480
318,1455475651.1629180908203125,576
319,1455475651.22336339950561523438,608
320,1455475651.28296375274658203125,568
321,1455475651.34241461753845214844,480
322,1455475651.40276288986206054688,392
323,1455475651.46295428276062011719,376
324,1455475651.52291393280029296875,440
325,1455475651.58300948143005371094,536
326,1455475651.64250874519348144531,608
327,1455475651.70216655731201171875,600
328,1455475651.7629642486572265625,520
329,1455475651.82297611236572265625,424
330,1455475651.88204979896545410156,376
331,1455475651.94259619712829589844,408
332,1455475652.00252628326416015625,496
333,1455475652.06271243095397949219,584
334,1455475652.12278151512145996094,608
335,1455475652.18293881416320800781,552
336,1455475652.24209094047546386719,456
337,1455475652.30292558670043945312,384
338,1455475652.36275696754455566406,384
339,1455475652.4237689971923828125,456
340,1455475652.48199748992919921875,552
341,1455475652.54203844070434570312,608
342,1455475652.60272479057312011719,584
343,1455475652.66304230690002441406,496
344,1455475652.72351503372192382812,408
345,1455475652.78279876708984375,376
346,1455475652.84215474128723144531,416
347,1455475652.90272760391235351562,512
348,1455475652.96295332908630371094,592
349,1455475653.023681640625,528
350,1455475653.08276486396789550781,600
351,1455475653.14265084266662597656,600
352,1455475653.20246911048889160156,528
353,1455475653.26233935356140136719,424
354,1455475653.322849273681640625,376
355,1455475653.38407397270202636719,400
356,1455475653.44266724586486816406,488
357,1455475653.50278830528259277344,584
358,1455475653.56276011466979980469,608
359,1455475653.62367010116577148438,560
360,1455475653.68271327018737792969,464
361,1455475653.74294805526733398438,384
362,1455475653.80236721038818359375,376
363,1455475653.86323809623718261719,448
364,1455475653.92290973663330078125,544
365,1455475653.98206853866577148438,608
366,1455475654.04289674758911132812,592
367,1455475654.10297155380249023438,504
368,1455475654.16295170783996582031,408
369,1455475654.22318530082702636719,376
370,1455475654.28272962570190429688,416
371,1455475654.34214806556701660156,504
372,1455475654.40284085273742675781,592
373,1455475654.46308493614196777344,608
374,1455475654.52358317375183105469,544
375,1455475654.58269143104553222656,448
376,1455475654.64307379722595214844,376
377,1455475654.70326900482177734375,384
378,1455475654.76303911209106445312,464
379,1455475654.82384037971496582031,568
380,1455475654.88330388069152832031,608
381,1455475654.94308996200561523438,576
382,1455475655.0028209686279296875,488
383,1455475655.06268930435180664062,400
384,1455475655.12323069572448730469,376
385,1455475655.18262553215026855469,432
386,1455475655.2420520782470703125,528
387,1455475655.30288910865783691406,600
388,1455475655.36198973655700683594,600
389,1455475655.42422389984130859375,528
390,1455475655.482486724853515625,432
391,1455475655.54314088821411132812,376
392,1455475655.60288262367248535156,400
393,1455475655.66300249099731445312,488
394,1455475655.72384762763977050781,576
395,1455475655.78251934051513671875,608
396,1455475655.84300875663757324219,568
397,1455475655.90219593048095703125,472
398,1455475655.96315550804138183594,384
399,1455475656.02318644523620605469,376
400,1455475656.08236813545227050781,448
401,1455475656.14263439178466796875,544
402,1455475656.20287561416625976562,608
403,1455475656.26245617866516113281,592
404,1455475656.32270503044128417969,512
405,1455475656.3832912445068359375,416
406,1455475656.44225668907165527344,376
407,1455475656.50296425819396972656,408
408,1455475656.56302976608276367188,504
409,1455475656.62367224693298339844,592
410,1455475656.6828460693359375,608
411,1455475656.74323272705078125,552
412,1455475656.80244708061218261719,448
413,1455475656.86270642280578613281,384
414,1455475656.92367625236511230469,384
415,1455475656.98283123970031738281,464
416,1455475657.04252028465270996094,560
417,1455475657.10199737548828125,608
418,1455475657.16279292106628417969,584
419,1455475657.22318363189697265625,488
420,1455475657.28243231773376464844,400
421,1455475657.34308409690856933594,376
422,1455475657.40227437019348144531,424
423,1455475657.46245718002319335938,520
424,1455475657.52344012260437011719,600
425,1455475657.58276844024658203125,600
426,1455475657.64268159866333007812,536
427,1455475657.70293402671813964844,432
428,1455475657.76276469230651855469,376
429,1455475657.82355165481567382812,400
430,1455475657.882846832275390625,480
431,1455475657.94367241859436035156,576
432,1455475658.00333809852600097656,608
433,1455475658.06234765052795410156,568
434,1455475658.12346220016479492188,472
435,1455475658.18293094635009765625,392
436,1455475658.24242949485778808594,376
437,1455475658.302959442138671875,440
438,1455475658.36297607421875,544
439,1455475658.42390871047973632812,608
440,1455475658.48302555084228515625,592
441,1455475658.54244971275329589844,512
442,1455475658.60276651382446289062,416
443,1455475658.66235613822937011719,376
444,1455475658.72435021400451660156,408
445,1455475658.78303122520446777344,504
446,1455475658.84227800369262695312,584
447,1455475658.9029083251953125,608
448,1455475658.96206045150756835938,552
449,1455475659.02553606033325195312,448
450,1455475659.08260798454284667969,384
451,1455475659.142139434814453125,384
452,1455475659.20235991477966308594,456
453,1455475659.26251339912414550781,560
454,1455475659.32387542724609375,608
455,1455475659.38262772560119628906,584
456,1455475659.44259357452392578125,496
457,1455475659.50295734405517578125,400
458,1455475659.56286597251892089844,376
459,1455475659.62337923049926757812,424
460,1455475659.68302106857299804688,520
461,1455475659.74248409271240234375,600
462,1455475659.80292344093322753906,608
463,1455475659.8623676300048828125,536
464,1455475659.92435860633850097656,432
465,1455475659.98243355751037597656,376
466,1455475660.04289913177490234375,392
467,1455475660.10316109657287597656,480
468,1455475660.16294145584106445312,576
469,1455475660.22353887557983398438,608
470,1455475660.28276419639587402344,568
471,1455475660.34687376022338867188,472
472,1455475660.40322828292846679688,392
473,1455475660.46231484413146972656,376
474,1455475660.52358078956604003906,440
475,1455475660.58264589309692382812,536
476,1455475660.64287137985229492188,608
477,1455475660.70271396636962890625,600
478,1455475660.76254439353942871094,520
479,1455475660.82309055328369140625,424
480,1455475660.88247823715209960938,376
481,1455475660.94263720512390136719,408
482,1455475661.00312018394470214844,496
483,1455475661.06279134750366210938,584
484,1455475661.12343764305114746094,608
485,1455475661.18284749984741210938,552
486,1455475661.24244451522827148438,456
487,1455475661.3029041290283203125,384
488,1455475661.36246204376220703125,384
489,1455475661.42365312576293945312,456
490,1455475661.48204207420349121094,552
491,1455475661.54237389564514160156,608
492,1455475661.60251712799072265625,584
493,1455475661.66284322738647460938,496
494,1455475661.72317910194396972656,408
495,1455475661.78231143951416015625,376
496,1455475661.84300494194030761719,416
497,1455475661.90217566490173339844,512
498,1455475661.96288800239562988281,592
499,1455475662.02321267127990722656,528
500,1455475662.08235883712768554688,600
501,1455475662.14314627647399902344,600
502,1455475662.20250248908996582031,528
503,1455475662.26237225532531738281,424
504,1455475662.3237705230712890625,376
505,1455475662.38269925117492675781,400
