id, time (s), size (bits)
0,1455475632.44050931930541992188,496
1,1455475632.50184869766235351562,408
2,1455475632.55966544151306152344,376
3,1455475632.6205501556396484375,416
4,1455475632.681087493896484375,520
5,1455475632.74209117889404296875,600
6,1455475632.80012154579162597656,608
7,1455475632.86224675178527832031,536
8,1455475632.9199275970458984375,440
9,1455475632.98072934150695800781,376
10,1455475633.03997254371643066406,392
11,1455475633.09987521171569824219,472
12,1455475633.16172432899475097656,568
13,1455475633.22069549560546875,608
14,1455475633.28121519088745117188,576
15,1455475633.34007740020751953125,480
16,1455475633.39982485771179199219,392
17,1455475633.46242070198059082031,376
18,1455475633.5201549530029296875,432
19,1455475633.58085942268371582031,536
20,1455475633.64093422889709472656,608
21,1455475633.70044851303100585938,600
22,1455475633.76123380661010742188,520
23,1455475633.82004070281982421875,424
24,1455475633.88049244880676269531,376
25,1455475633.94020891189575195312,400
26,1455475633.99962973594665527344,488
27,1455475634.0600109100341796875,584
28,1455475634.11982965469360351562,608
29,1455475634.18061614036560058594,560
30,1455475634.24011158943176269531,464
31,1455475634.30053186416625976562,384
32,1455475634.36161684989929199219,384
33,1455475634.42060017585754394531,456
34,1455475634.48113107681274414062,552
35,1455475634.54000520706176757812,608
36,1455475634.6007480621337890625,592
37,1455475634.66084647178649902344,504
38,1455475634.71955919265747070312,408
39,1455475634.78050017356872558594,376
40,1455475634.84024214744567871094,416
41,1455475634.89999365806579589844,512
42,1455475634.96118783950805664062,592
43,1455475635.0208568572998046875,528
44,1455475635.08040785789489746094,600
45,1455475635.13965153694152832031,600
46,1455475635.20010137557983398438,528
47,1455475635.26005244255065917969,432
48,1455475635.32063055038452148438,376
49,1455475635.3806934356689453125,400
50,1455475635.44012737274169921875,488
51,1455475635.50007176399230957031,576
52,1455475635.5616130828857421875,608
53,1455475635.61954712867736816406,568
54,1455475635.68084812164306640625,472
55,1455475635.74064731597900390625,392
56,1455475635.79989719390869140625,376
57,1455475635.86215472221374511719,448
58,1455475635.92190265655517578125,544
59,1455475635.98115944862365722656,608
60,1455475636.04056000709533691406,592
61,1455475636.10008215904235839844,512
62,1455475636.16168332099914550781,416
63,1455475636.22010946273803710938,376
64,1455475636.28135466575622558594,408
65,1455475636.33988165855407714844,504
66,1455475636.39975595474243164062,592
67,1455475636.46018648147583007812,608
68,1455475636.52037072181701660156,552
69,1455475636.58280491828918457031,448
70,1455475636.6421451568603515625,376
71,1455475636.70080423355102539062,384
72,1455475636.75971198081970214844,464
73,1455475636.82048153877258300781,560
74,1455475636.88042521476745605469,608
75,1455475636.940265655517578125,584
76,1455475637.00014710426330566406,488
77,1455475637.06093740463256835938,400
78,1455475637.12019109725952148438,376
79,1455475637.18146514892578125,424
80,1455475637.24065256118774414062,520
81,1455475637.30050373077392578125,600
82,1455475637.3610057830810546875,600
83,1455475637.4209880828857421875,528
84,1455475637.48131275177001953125,432
85,1455475637.54021883010864257812,376
86,1455475637.60207343101501464844,400
87,1455475637.66076445579528808594,480
88,1455475637.72046494483947753906,576
89,1455475637.78223848342895507812,608
90,1455475637.84116268157958984375,568
91,1455475637.90067911148071289062,472
92,1455475637.95957303047180175781,392
93,1455475638.02022027969360351562,376
94,1455475638.08064031600952148438,440
95,1455475638.14014863967895507812,536
96,1455475638.20054936408996582031,608
97,1455475638.26100397109985351562,592
98,1455475638.31986594200134277344,512
99,1455475638.38073825836181640625,416
100,1455475638.43983793258666992188,376
101,1455475638.49971270561218261719,408
102,1455475638.56149220466613769531,504
103,1455475638.62022829055786132812,584
104,1455475638.68145513534545898438,608
105,1455475638.74038076400756835938,552
106,1455475638.80035805702209472656,456
107,1455475638.8604869842529296875,384
108,1455475638.92052698135375976562,384
109,1455475638.98090291023254394531,456
110,1455475639.03980398178100585938,552
111,1455475639.10077667236328125,608
112,1455475639.16149210929870605469,584
113,1455475639.22234869003295898438,488
114,1455475639.28114795684814453125,400
115,1455475639.34040784835815429688,376
116,1455475639.40064239501953125,424
117,1455475639.45959568023681640625,520
118,1455475639.52006578445434570312,600
119,1455475639.58091115951538085938,608
120,1455475639.64025568962097167969,536
121,1455475639.70054030418395996094,440
122,1455475639.76042842864990234375,376
123,1455475639.82001519203186035156,392
124,1455475639.88103127479553222656,480
125,1455475639.94091200828552246094,576
126,1455475639.99995207786560058594,608
127,1455475640.06095099449157714844,568
128,1455475640.1200351715087890625,480
129,1455475640.1815319061279296875,392
130,1455475640.24064517021179199219,376
131,1455475640.30070066452026367188,440
132,1455475640.36150598526000976562,536
133,1455475640.4199161529541015625,608
134,1455475640.48107409477233886719,600
135,1455475640.54038643836975097656,520
136,1455475640.59983682632446289062,424
137,1455475640.66107964515686035156,376
138,1455475640.71979403495788574219,408
139,1455475640.78141331672668457031,496
140,1455475640.8397197723388671875,584
141,1455475640.90055298805236816406,608
142,1455475640.96125316619873046875,552
143,1455475641.02076077461242675781,456
144,1455475641.08056402206420898438,384
145,1455475641.13997912406921386719,384
146,1455475641.1999053955078125,456
147,1455475641.26193523406982421875,552
148,1455475641.32008218765258789062,608
149,1455475641.38050580024719238281,584
150,1455475641.43962168693542480469,504
151,1455475641.50043010711669921875,408
152,1455475641.56144547462463378906,376
153,1455475641.62053203582763671875,416
154,1455475641.68092465400695800781,512
155,1455475641.73978829383850097656,592
156,1455475641.79995131492614746094,608
157,1455475641.86257052421569824219,536
158,1455475641.92030358314514160156,440
159,1455475641.98099398612976074219,376
160,1455475642.04095530509948730469,392
161,1455475642.10052061080932617188,472
162,1455475642.16180014610290527344,568
163,1455475642.22065830230712890625,608
164,1455475642.28084897994995117188,576
165,1455475642.34004044532775878906,480
166,1455475642.40055298805236816406,392
167,1455475642.46216106414794921875,376
168,1455475642.51954793930053710938,432
169,1455475642.580535888671875,536
170,1455475642.64005041122436523438,600
171,1455475642.70045733451843261719,600
172,1455475642.76172304153442382812,520
173,1455475642.82029938697814941406,424
174,1455475642.88095378875732421875,376
175,1455475642.94079232215881347656,400
176,1455475643.00023818016052246094,496
177,1455475643.06128549575805664062,584
178,1455475643.11998629570007324219,608
179,1455475643.18058419227600097656,560
180,1455475643.23981809616088867188,464
181,1455475643.3004913330078125,384
182,1455475643.360736846923828125,384
183,1455475643.42030811309814453125,448
184,1455475643.48088860511779785156,552
185,1455475643.54048514366149902344,608
186,1455475643.600063323974609375,592
187,1455475643.66173505783081054688,504
188,1455475643.72062230110168457031,408
189,1455475643.78080654144287109375,376
190,1455475643.84035038948059082031,416
191,1455475643.90001964569091796875,512
192,1455475643.96250844001770019531,592
193,1455475644.02071380615234375,528
194,1455475644.08080816268920898438,600
195,1455475644.14091658592224121094,600
196,1455475644.200275421142578125,528
197,1455475644.26183295249938964844,432
198,1455475644.3196239471435546875,376
199,1455475644.38145875930786132812,400
200,1455475644.43982410430908203125,488
201,1455475644.50055861473083496094,576
202,1455475644.56196093559265136719,608
203,1455475644.62025928497314453125,568
204,1455475644.68060898780822753906,472
205,1455475644.73980689048767089844,392
206,1455475644.79994463920593261719,376
207,1455475644.86065530776977539062,448
208,1455475644.92398858070373535156,552
209,1455475644.98045492172241210938,608
210,1455475645.04189229011535644531,592
211,1455475645.10039877891540527344,512
212,1455475645.16165065765380859375,416
213,1455475645.22057509422302246094,376
214,1455475645.28095936775207519531,408
215,1455475645.34082460403442382812,504
216,1455475645.40022563934326171875,592
217,1455475645.46026873588562011719,608
218,1455475645.52038455009460449219,552
219,1455475645.58133697509765625,448
220,1455475645.64059519767761230469,384
221,1455475645.70008611679077148438,384
222,1455475645.75973343849182128906,464
223,1455475645.82050848007202148438,560
224,1455475645.88131260871887207031,608
225,1455475645.93992590904235839844,584
226,1455475646.00051236152648925781,488
227,1455475646.06069469451904296875,400
228,1455475646.12004995346069335938,376
229,1455475646.18276238441467285156,432
230,1455475646.24017786979675292969,520
231,1455475646.30034780502319335938,600
232,1455475646.36058831214904785156,600
233,1455475646.420352935791015625,536
234,1455475646.4805316925048828125,432
235,1455475646.54074811935424804688,376
236,1455475646.60076212882995605469,392
237,1455475646.66026639938354492188,480
238,1455475646.72066950798034667969,576
239,1455475646.78159952163696289062,608
240,1455475646.83979582786560058594,568
241,1455475646.89997911453247070312,472
242,1455475646.96028804779052734375,392
243,1455475647.02101278305053710938,376
244,1455475647.08119463920593261719,440
245,1455475647.14062643051147460938,544
246,1455475647.199558258056640625,608
247,1455475647.25999689102172851562,592
248,1455475647.32065701484680175781,512
249,1455475647.38072919845581054688,416
250,1455475647.44050335884094238281,376
251,1455475647.50037908554077148438,408
252,1455475647.56177186965942382812,504
253,1455475647.62020635604858398438,584
254,1455475647.68105435371398925781,608
255,1455475647.73998999595642089844,552
256,1455475647.80011892318725585938,456
257,1455475647.86052703857421875,384
258,1455475647.92058968544006347656,384
259,1455475647.98171186447143554688,464
260,1455475648.04082918167114257812,560
261,1455475648.10016107559204101562,608
262,1455475648.15982127189636230469,584
263,1455475648.219989776611328125,496
264,1455475648.28127908706665039062,400
265,1455475648.33994841575622558594,376
266,1455475648.39964461326599121094,424
267,1455475648.46069455146789550781,520
268,1455475648.51988363265991210938,600
269,1455475648.58051347732543945312,608
270,1455475648.63955044746398925781,536
271,1455475648.69973611831665039062,440
272,1455475648.76015806198120117188,376
273,1455475648.819698333740234375,392
274,1455475648.88045096397399902344,480
275,1455475648.94080805778503417969,576
276,1455475648.99977564811706542969,608
277,1455475649.06147503852844238281,568
278,1455475649.12022161483764648438,480
279,1455475649.181056976318359375,392
280,1455475649.24021124839782714844,376
281,1455475649.3003387451171875,440
282,1455475649.36172723770141601562,536
283,1455475649.41994953155517578125,608
284,1455475649.48108792304992675781,600
285,1455475649.54062771797180175781,520
286,1455475649.60038018226623535156,424
287,1455475649.66015100479125976562,376
288,1455475649.7204570770263671875,408
289,1455475649.78070044517517089844,496
290,1455475649.84058237075805664062,584
291,1455475649.90038037300109863281,608
292,1455475649.96189332008361816406,552
293,1455475650.02080106735229492188,456
294,1455475650.08048701286315917969,384
295,1455475650.14033198356628417969,384
296,1455475650.19956922531127929688,456
297,1455475650.26014089584350585938,552
298,1455475650.31989073753356933594,608
299,1455475650.38052248954772949219,584
300,1455475650.44026327133178710938,496
301,1455475650.50010228157043457031,408
302,1455475650.5610980987548828125,376
303,1455475650.62011837959289550781,416
304,1455475650.68086671829223632812,512
305,1455475650.74020123481750488281,592
306,1455475650.79997897148132324219,608
307,1455475650.86221909523010253906,536
308,1455475650.92042517662048339844,440
309,1455475650.98072195053100585938,376
310,1455475651.03995966911315917969,392
311,1455475651.100688934326171875,472
312,1455475651.16168808937072753906,568
313,1455475651.21965336799621582031,608
314,1455475651.28132486343383789062,576
315,1455475651.34015250205993652344,480
316,1455475651.40052294731140136719,392
317,1455475651.46142148971557617188,376
318,1455475651.520061492919921875,432
319,1455475651.5810108184814453125,536
320,1455475651.639923095703125,600
321,1455475651.70020341873168945312,600
322,1455475651.76181721687316894531,520
323,1455475651.82035732269287109375,424
324,1455475651.88081026077270507812,376
325,1455475651.93998861312866210938,400
326,1455475652.00043272972106933594,496
327,1455475652.06148409843444824219,584
328,1455475652.12008547782897949219,608
329,1455475652.18030214309692382812,560
330,1455475652.23993849754333496094,464
331,1455475652.30079889297485351562,384
332,1455475652.36153864860534667969,384
333,1455475652.42005467414855957031,448
334,1455475652.48065710067749023438,552
335,1455475652.54076480865478515625,608
336,1455475652.60028076171875,592
337,1455475652.66128039360046386719,504
338,1455475652.72062206268310546875,408
339,1455475652.78129553794860839844,376
340,1455475652.83988714218139648438,416
341,1455475652.90028071403503417969,512
342,1455475652.96136069297790527344,592
343,1455475653.01984238624572753906,528
344,1455475653.080806732177734375,600
345,1455475653.14033985137939453125,600
346,1455475653.19977521896362304688,528
347,1455475653.26054978370666503906,432
348,1455475653.32054996490478515625,376
349,1455475653.38118791580200195312,400
350,1455475653.44031739234924316406,488
351,1455475653.50015115737915039062,576
352,1455475653.56168985366821289062,608
353,1455475653.62048172950744628906,568
354,1455475653.68119287490844726562,464
355,1455475653.74104762077331542969,384
356,1455475653.80141401290893554688,376
357,1455475653.85968923568725585938,440
358,1455475653.92057776451110839844,544
359,1455475653.9808902740478515625,608
360,1455475654.03985166549682617188,592
361,1455475654.10052633285522460938,512
362,1455475654.16125416755676269531,416
363,1455475654.22057962417602539062,376
364,1455475654.28027367591857910156,408
365,1455475654.33962297439575195312,504
366,1455475654.40053868293762207031,592
367,1455475654.46036434173583984375,608
368,1455475654.52029013633728027344,552
369,1455475654.58074283599853515625,448
370,1455475654.64047980308532714844,384
371,1455475654.700603485107421875,384
372,1455475654.75965118408203125,464
373,1455475654.81975293159484863281,560
374,1455475654.88090252876281738281,608
375,1455475654.94065403938293457031,584
376,1455475655.00065541267395019531,488
377,1455475655.06130576133728027344,400
378,1455475655.12051630020141601562,376
379,1455475655.18042993545532226562,424
380,1455475655.2407512664794921875,520
381,1455475655.29956459999084472656,600
382,1455475655.36113190650939941406,600
383,1455475655.420330047607421875,536
384,1455475655.48062801361083984375,432
385,1455475655.54031991958618164062,376
386,1455475655.60004854202270507812,392
387,1455475655.660648345947265625,480
388,1455475655.71956992149353027344,576
389,1455475655.78109049797058105469,608
390,1455475655.84017205238342285156,568
391,1455475655.90081858634948730469,472
392,1455475655.960559844970703125,392
393,1455475656.02079510688781738281,376
394,1455475656.08070635795593261719,440
395,1455475656.14032483100891113281,544
396,1455475656.19960927963256835938,608
397,1455475656.26149868965148925781,592
398,1455475656.32046222686767578125,512
399,1455475656.38096356391906738281,416
400,1455475656.43990159034729003906,376
401,1455475656.49993872642517089844,408
402,1455475656.56046724319458007812,504
403,1455475656.62042498588562011719,584
404,1455475656.68126511573791503906,608
405,1455475656.74046850204467773438,552
406,1455475656.80049300193786621094,456
407,1455475656.86308908462524414062,376
408,1455475656.92371511459350585938,384
409,1455475656.98163080215454101562,464
410,1455475657.04041886329650878906,560
411,1455475657.09997153282165527344,608
412,1455475657.16145467758178710938,584
413,1455475657.22004437446594238281,496
414,1455475657.28124070167541503906,400
415,1455475657.34069895744323730469,376
416,1455475657.40004253387451171875,424
417,1455475657.46057367324829101562,520
418,1455475657.52034020423889160156,600
419,1455475657.58068871498107910156,608
420,1455475657.63991498947143554688,536
421,1455475657.70086693763732910156,440
422,1455475657.76050639152526855469,376
423,1455475657.82051825523376464844,392
424,1455475657.88155269622802734375,480
425,1455475657.94099760055541992188,576
426,1455475658.0006427764892578125,608
427,1455475658.06035518646240234375,568
428,1455475658.12044429779052734375,480
429,1455475658.18085384368896484375,392
430,1455475658.2401218414306640625,376
431,1455475658.30091047286987304688,440
432,1455475658.36120486259460449219,536
433,1455475658.42013311386108398438,608
434,1455475658.48126697540283203125,600
435,1455475658.54077744483947753906,520
436,1455475658.60000705718994140625,424
437,1455475658.66150975227355957031,376
438,1455475658.71957492828369140625,400
439,1455475658.78124594688415527344,496
440,1455475658.840763092041015625,584
441,1455475658.90006613731384277344,608
442,1455475658.96019983291625976562,560
443,1455475659.02028989791870117188,456
444,1455475659.08107018470764160156,384
445,1455475659.13991379737854003906,384
446,1455475659.20046925544738769531,456
447,1455475659.26201033592224121094,552
448,1455475659.31988286972045898438,608
449,1455475659.38134694099426269531,584
450,1455475659.44010591506958007812,496
451,1455475659.49977064132690429688,408
452,1455475659.55997133255004882812,376
453,1455475659.61976289749145507812,416
454,1455475659.68135833740234375,520
455,1455475659.7401065826416015625,592
456,1455475659.80059170722961425781,608
457,1455475659.86064648628234863281,536
458,1455475659.92012858390808105469,440
459,1455475659.98098921775817871094,376
460,1455475660.04078435897827148438,392
461,1455475660.10036730766296386719,472
462,1455475660.16002058982849121094,568
463,1455475660.21994113922119140625,608
464,1455475660.28109788894653320312,576
465,1455475660.34023761749267578125,480
466,1455475660.40006923675537109375,392
467,1455475660.45965576171875,376
468,1455475660.52084636688232421875,432
469,1455475660.58085703849792480469,536
470,1455475660.64033389091491699219,600
471,1455475660.69980406761169433594,600
472,1455475660.76086544990539550781,520
473,1455475660.82050180435180664062,424
474,1455475660.88096404075622558594,376
475,1455475660.94028306007385253906,400
476,1455475661.00042581558227539062,496
477,1455475661.05983281135559082031,584
478,1455475661.12046265602111816406,608
479,1455475661.18128728866577148438,560
480,1455475661.23963117599487304688,464
481,1455475661.3000888824462890625,384
482,1455475661.36068415641784667969,384
483,1455475661.42034602165222167969,448
484,1455475661.48086476325988769531,552
485,1455475661.54040408134460449219,608
486,1455475661.59989500045776367188,592
487,1455475661.66051363945007324219,504
488,1455475661.72035002708435058594,408
489,1455475661.78086185455322265625,376
490,1455475661.84020447731018066406,416
491,1455475661.90076708793640136719,512
492,1455475661.95980191230773925781,592
493,1455475662.02041578292846679688,528
494,1455475662.08093810081481933594,600
495,1455475662.14007234573364257812,600
496,1455475662.20044112205505371094,528
497,1455475662.26007342338562011719,432
498,1455475662.32022356986999511719,376
499,1455475662.38086986541748046875,400
500,1455475662.43989443778991699219,488
501,1455475662.50046777725219726562,576
502,1455475662.56020092964172363281,608
503,1455475662.62038683891296386719,568
504,1455475662.68141460418701171875,464
