id, time (s), size (bits)
0,1455475630.9256038665771484375,552
1,1455475630.99473357200622558594,608
2,1455475631.06525921821594238281,568
3,1455475631.13457131385803222656,456
4,1455475631.20673441886901855469,376
5,1455475631.27598977088928222656,408
6,1455475631.34539866447448730469,512
7,1455475631.41582608222961425781,600
8,1455475631.48477458953857421875,592
9,1455475631.5556583404541015625,488
10,1455475631.62537670135498046875,392
11,1455475631.69550466537475585938,384
12,1455475631.76446700096130371094,472
13,1455475631.83478188514709472656,576
14,1455475631.90561699867248535156,608
15,1455475631.9750843048095703125,536
16,1455475632.04542660713195800781,424
17,1455475632.11590838432312011719,376
18,1455475632.18463039398193359375,432
19,1455475632.2554340362548828125,544
20,1455475632.32457613945007324219,608
21,1455475632.3947391510009765625,568
22,1455475632.46485829353332519531,456
23,1455475632.53620982170104980469,376
24,1455475632.60557270050048828125,400
25,1455475632.67464685440063476562,504
26,1455475632.74525427818298339844,600
27,1455475632.81477475166320800781,600
28,1455475632.88480162620544433594,496
29,1455475632.95643973350524902344,392
30,1455475633.0250701904296875,376
31,1455475633.09499406814575195312,464
32,1455475633.164775848388671875,576
33,1455475633.23522472381591796875,608
34,1455475633.30558681488037109375,536
35,1455475633.37622380256652832031,424
36,1455475633.44626784324645996094,376
37,1455475633.51464676856994628906,424
38,1455475633.58515238761901855469,544
39,1455475633.65529417991638183594,608
40,1455475633.7254352569580078125,576
41,1455475633.79559063911437988281,464
42,1455475633.86488676071166992188,376
43,1455475633.93466210365295410156,400
44,1455475634.00509357452392578125,504
45,1455475634.07515692710876464844,600
46,1455475634.14454793930053710938,600
47,1455475634.21576523780822753906,504
48,1455475634.28520154953002929688,400
49,1455475634.35578584671020507812,376
50,1455475634.42484259605407714844,456
51,1455475634.49459743499755859375,568
52,1455475634.56467843055725097656,608
53,1455475634.63590192794799804688,544
54,1455475634.70535492897033691406,432
55,1455475634.77528834342956542969,376
56,1455475634.84478354454040527344,424
57,1455475634.91519808769226074219,536
58,1455475634.98438787460327148438,608
59,1455475635.05664205551147460938,576
60,1455475635.12564969062805175781,608
61,1455475635.19518017768859863281,536
62,1455475635.26502728462219238281,424
63,1455475635.33451032638549804688,376
64,1455475635.40740919113159179688,432
65,1455475635.47553324699401855469,544
66,1455475635.54455304145812988281,608
67,1455475635.61482214927673339844,576
68,1455475635.68485283851623535156,464
69,1455475635.75505089759826660156,376
70,1455475635.82506489753723144531,400
71,1455475635.89620304107666015625,504
72,1455475635.96513271331787109375,600
73,1455475636.03479671478271484375,600
74,1455475636.10552954673767089844,504
75,1455475636.17487215995788574219,400
76,1455475636.24496698379516601562,376
77,1455475636.31582379341125488281,464
78,1455475636.38546919822692871094,576
79,1455475636.45558619499206542969,608
80,1455475636.52507066726684570312,544
81,1455475636.5949993133544921875,432
82,1455475636.66456437110900878906,376
83,1455475636.73636913299560546875,424
84,1455475636.80670189857482910156,536
85,1455475636.874767303466796875,608
86,1455475636.94544386863708496094,576
87,1455475637.015167236328125,464
88,1455475637.08531284332275390625,376
89,1455475637.15616369247436523438,392
90,1455475637.22549915313720703125,496
91,1455475637.29474020004272460938,592
92,1455475637.36501741409301757812,600
93,1455475637.43493771553039550781,512
94,1455475637.50544071197509765625,400
95,1455475637.57581758499145507812,376
96,1455475637.64532637596130371094,456
97,1455475637.71577692031860351562,568
98,1455475637.78601837158203125,608
99,1455475637.85684084892272949219,544
100,1455475637.92487454414367675781,432
101,1455475637.99539446830749511719,376
102,1455475638.064968109130859375,416
103,1455475638.13530087471008300781,536
104,1455475638.2053318023681640625,608
105,1455475638.2751102447509765625,584
106,1455475638.34461474418640136719,472
107,1455475638.41555356979370117188,384
108,1455475638.48567867279052734375,392
109,1455475638.55591535568237304688,496
110,1455475638.62550091743469238281,592
111,1455475638.6948642730712890625,600
112,1455475638.76528167724609375,512
113,1455475638.83541631698608398438,408
114,1455475638.9059619903564453125,376
115,1455475638.97514319419860839844,448
116,1455475639.04504799842834472656,560
117,1455475639.11472010612487792969,608
118,1455475639.18485856056213378906,552
119,1455475639.25702762603759765625,432
120,1455475639.32530236244201660156,376
121,1455475639.3949375152587890625,416
122,1455475639.46536493301391601562,528
123,1455475639.53516316413879394531,608
124,1455475639.60597848892211914062,584
125,1455475639.67519259452819824219,480
126,1455475639.744770050048828125,384
127,1455475639.81449222564697265625,384
128,1455475639.88489627838134765625,488
129,1455475639.95622205734252929688,592
130,1455475640.02520513534545898438,608
131,1455475640.09529995918273925781,520
132,1455475640.16556334495544433594,408
133,1455475640.23442578315734863281,376
134,1455475640.30563259124755859375,448
135,1455475640.37489795684814453125,560
136,1455475640.44493007659912109375,608
137,1455475640.51588606834411621094,552
138,1455475640.58526396751403808594,440
139,1455475640.6558475494384765625,376
140,1455475640.7248706817626953125,408
141,1455475640.79522848129272460938,520
142,1455475640.86503624916076660156,608
143,1455475640.93620347976684570312,584
144,1455475641.00594997406005859375,480
145,1455475641.07462263107299804688,384
146,1455475641.1453094482421875,384
147,1455475641.21525096893310546875,480
148,1455475641.28466391563415527344,584
149,1455475641.3565692901611328125,608
150,1455475641.42522668838500976562,528
151,1455475641.49529743194580078125,416
152,1455475641.56497359275817871094,376
153,1455475641.63520097732543945312,440
154,1455475641.70567917823791503906,552
155,1455475641.77540731430053710938,608
156,1455475641.84643769264221191406,560
157,1455475641.91481709480285644531,448
158,1455475641.98510408401489257812,376
159,1455475642.05703258514404296875,408
160,1455475642.12505412101745605469,512
161,1455475642.19602465629577636719,600
162,1455475642.26539921760559082031,592
163,1455475642.33436608314514160156,488
164,1455475642.40530514717102050781,392
165,1455475642.47467660903930664062,384
166,1455475642.54521989822387695312,472
167,1455475642.61570858955383300781,584
168,1455475642.68522953987121582031,608
169,1455475642.75592684745788574219,528
170,1455475642.82506775856018066406,416
171,1455475642.89495682716369628906,376
172,1455475642.965091705322265625,432
173,1455475643.03608012199401855469,552
174,1455475643.10580277442932128906,608
175,1455475643.17539477348327636719,568
176,1455475643.24476647377014160156,456
177,1455475643.31473875045776367188,376
178,1455475643.38496255874633789062,400
179,1455475643.45631527900695800781,512
180,1455475643.52610182762145996094,600
181,1455475643.59520030021667480469,592
182,1455475643.66449737548828125,496
183,1455475643.73482537269592285156,392
184,1455475643.80522203445434570312,384
185,1455475643.87573218345642089844,472
186,1455475643.94473290443420410156,576
187,1455475644.01507019996643066406,520
188,1455475644.08564043045043945312,608
189,1455475644.1555080413818359375,592
190,1455475644.22483348846435546875,488
191,1455475644.29581904411315917969,392
192,1455475644.36517596244812011719,384
193,1455475644.43534350395202636719,480
194,1455475644.50687003135681152344,584
195,1455475644.57504963874816894531,608
196,1455475644.64569854736328125,528
197,1455475644.71578502655029296875,416
198,1455475644.78508663177490234375,376
199,1455475644.85787987709045410156,440
200,1455475644.92497968673706054688,552
201,1455475644.99472260475158691406,608
202,1455475645.0648956298828125,568
203,1455475645.13573718070983886719,448
204,1455475645.20678544044494628906,376
205,1455475645.27526688575744628906,408
206,1455475645.34540843963623046875,512
207,1455475645.41510295867919921875,600
208,1455475645.4850635528564453125,592
209,1455475645.55599212646484375,488
210,1455475645.62455153465270996094,392
211,1455475645.6946773529052734375,384
212,1455475645.765506744384765625,472
213,1455475645.83518576622009277344,576
214,1455475645.9057464599609375,608
215,1455475645.97634935379028320312,528
216,1455475646.04495477676391601562,424
217,1455475646.11467576026916503906,376
218,1455475646.1853427886962890625,432
219,1455475646.25559210777282714844,544
220,1455475646.32504415512084960938,608
221,1455475646.39626622200012207031,568
222,1455475646.4650783538818359375,456
223,1455475646.53497219085693359375,376
224,1455475646.6053981781005859375,400
225,1455475646.67531180381774902344,504
226,1455475646.74456048011779785156,600
227,1455475646.81552958488464355469,592
228,1455475646.88571453094482421875,496
229,1455475646.95503687858581542969,392
230,1455475647.02502179145812988281,376
231,1455475647.09496974945068359375,464
232,1455475647.16492486000061035156,576
233,1455475647.23561120033264160156,608
234,1455475647.30653619766235351562,536
235,1455475647.37454891204833984375,424
236,1455475647.4461765289306640625,376
237,1455475647.51442599296569824219,424
238,1455475647.58445835113525390625,536
239,1455475647.65631914138793945312,608
240,1455475647.72458744049072265625,576
241,1455475647.79542899131774902344,464
242,1455475647.86500144004821777344,376
243,1455475647.93471503257751464844,400
244,1455475648.00559902191162109375,504
245,1455475648.07547020912170410156,600
246,1455475648.14528942108154296875,600
247,1455475648.21556520462036132812,504
248,1455475648.28489923477172851562,400
249,1455475648.35585308074951171875,376
250,1455475648.42473006248474121094,456
251,1455475648.49606633186340332031,568
252,1455475648.56572222709655761719,608
253,1455475648.63504934310913085938,544
254,1455475648.70532870292663574219,432
255,1455475648.77508974075317382812,376
256,1455475648.84495091438293457031,424
257,1455475648.91626858711242675781,536
258,1455475648.9852886199951171875,608
259,1455475649.05598950386047363281,576
260,1455475649.12529659271240234375,472
261,1455475649.19481635093688964844,384
262,1455475649.26443123817443847656,392
263,1455475649.33576250076293945312,496
264,1455475649.40643215179443359375,592
265,1455475649.47435879707336425781,600
266,1455475649.54446578025817871094,512
267,1455475649.61547803878784179688,400
268,1455475649.68452548980712890625,376
269,1455475649.75657939910888671875,456
270,1455475649.82474565505981445312,568
271,1455475649.89489340782165527344,608
272,1455475649.96513247489929199219,552
273,1455475650.03481650352478027344,432
274,1455475650.10528254508972167969,376
275,1455475650.175930023193359375,416
276,1455475650.24618554115295410156,528
277,1455475650.31477880477905273438,608
278,1455475650.3851413726806640625,584
279,1455475650.45537424087524414062,472
280,1455475650.524585723876953125,384
281,1455475650.59540200233459472656,392
282,1455475650.66496229171752929688,488
283,1455475650.73468923568725585938,592
284,1455475650.80819177627563476562,600
285,1455475650.87537050247192382812,512
286,1455475650.945186614990234375,408
287,1455475651.0159397125244140625,376
288,1455475651.0854091644287109375,448
289,1455475651.155193328857421875,560
290,1455475651.22499537467956542969,608
291,1455475651.29501700401306152344,552
292,1455475651.36510324478149414062,440
293,1455475651.4351959228515625,376
294,1455475651.50667786598205566406,416
295,1455475651.57526612281799316406,528
296,1455475651.64474534988403320312,608
297,1455475651.71454739570617675781,584
298,1455475651.78488612174987792969,480
299,1455475651.85633754730224609375,384
300,1455475651.92668843269348144531,392
301,1455475651.99501490592956542969,480
302,1455475652.065441131591796875,584
303,1455475652.13461852073669433594,608
304,1455475652.20500850677490234375,520
305,1455475652.27538585662841796875,408
306,1455475652.3451099395751953125,376
307,1455475652.41515994071960449219,440
308,1455475652.48516297340393066406,560
309,1455475652.55569553375244140625,608
310,1455475652.62477469444274902344,560
311,1455475652.695667266845703125,448
312,1455475652.76542234420776367188,376
313,1455475652.83460307121276855469,408
314,1455475652.90604567527770996094,520
315,1455475652.97487235069274902344,608
316,1455475653.045314788818359375,560
317,1455475653.1154613494873046875,608
318,1455475653.18523097038269042969,552
319,1455475653.25582146644592285156,440
320,1455475653.32523965835571289062,376
321,1455475653.39438128471374511719,416
322,1455475653.46560144424438476562,528
323,1455475653.53624510765075683594,608
324,1455475653.60690450668334960938,584
325,1455475653.67524003982543945312,480
326,1455475653.74529767036437988281,384
327,1455475653.8146209716796875,384
328,1455475653.88438248634338378906,488
329,1455475653.95651912689208984375,592
330,1455475654.0254974365234375,608
331,1455475654.09496545791625976562,520
332,1455475654.16556239128112792969,408
333,1455475654.23476481437683105469,376
334,1455475654.30521655082702636719,448
335,1455475654.37539839744567871094,560
336,1455475654.44549131393432617188,608
337,1455475654.51459836959838867188,560
338,1455475654.58505606651306152344,440
339,1455475654.6562023162841796875,376
340,1455475654.72484946250915527344,408
341,1455475654.79630804061889648438,520
342,1455475654.86484313011169433594,608
343,1455475654.93473052978515625,584
344,1455475655.0062580108642578125,480
345,1455475655.0752773284912109375,384
346,1455475655.14459133148193359375,384
347,1455475655.21543145179748535156,480
348,1455475655.28582072257995605469,584
349,1455475655.35551023483276367188,608
350,1455475655.42473745346069335938,528
351,1455475655.49530100822448730469,416
352,1455475655.56487154960632324219,376
353,1455475655.63602352142333984375,440
354,1455475655.70534777641296386719,552
355,1455475655.77455472946166992188,608
356,1455475655.84754729270935058594,560
357,1455475655.91524219512939453125,448
358,1455475655.98502349853515625,376
359,1455475656.05615830421447753906,408
360,1455475656.12526607513427734375,512
361,1455475656.1951274871826171875,600
362,1455475656.26472449302673339844,592
363,1455475656.3346843719482421875,488
364,1455475656.40558290481567382812,392
365,1455475656.47604775428771972656,384
366,1455475656.5452747344970703125,472
367,1455475656.6151123046875,584
368,1455475656.685001373291015625,608
369,1455475656.75573587417602539062,528
370,1455475656.82470154762268066406,416
371,1455475656.89537549018859863281,376
372,1455475656.966190338134765625,440
373,1455475657.03522181510925292969,552
374,1455475657.10553336143493652344,608
375,1455475657.17498087882995605469,568
376,1455475657.24507284164428710938,456
377,1455475657.31612277030944824219,376
378,1455475657.38544702529907226562,400
379,1455475657.45601511001586914062,512
380,1455475657.52517080307006835938,600
381,1455475657.59472894668579101562,592
382,1455475657.66486597061157226562,496
383,1455475657.73610281944274902344,392
384,1455475657.8051700592041015625,384
385,1455475657.87539243698120117188,472
386,1455475657.94440531730651855469,576
387,1455475658.01513361930847167969,608
388,1455475658.08550238609313964844,536
389,1455475658.15633058547973632812,424
390,1455475658.22498679161071777344,376
391,1455475658.29523825645446777344,432
392,1455475658.36507081985473632812,544
393,1455475658.43474745750427246094,608
394,1455475658.506641387939453125,568
395,1455475658.5758209228515625,456
396,1455475658.64633154869079589844,376
397,1455475658.71504735946655273438,400
398,1455475658.78601145744323730469,504
399,1455475658.85550212860107421875,600
400,1455475658.92546677589416503906,600
401,1455475658.99623012542724609375,496
402,1455475659.0651302337646484375,400
403,1455475659.13465404510498046875,376
404,1455475659.20560383796691894531,464
405,1455475659.27481818199157714844,576
406,1455475659.34557294845581054688,608
407,1455475659.41608929634094238281,536
408,1455475659.48566651344299316406,424
409,1455475659.55537271499633789062,376
410,1455475659.62563347816467285156,424
411,1455475659.69465303421020507812,536
412,1455475659.764789581298828125,608
413,1455475659.83558940887451171875,576
414,1455475659.90609121322631835938,464
415,1455475659.97483205795288085938,376
416,1455475660.04487729072570800781,392
417,1455475660.11476016044616699219,496
418,1455475660.18493294715881347656,592
419,1455475660.25619411468505859375,600
420,1455475660.32549262046813964844,504
421,1455475660.39526200294494628906,400
422,1455475660.4646739959716796875,376
423,1455475660.53500080108642578125,456
424,1455475660.60534787178039550781,568
425,1455475660.67558217048645019531,608
426,1455475660.74483346939086914062,544
427,1455475660.815181732177734375,432
428,1455475660.884639739990234375,376
429,1455475660.95582294464111328125,424
430,1455475661.02494335174560546875,536
431,1455475661.09580731391906738281,608
432,1455475661.16540861129760742188,576
433,1455475661.23530721664428710938,472
434,1455475661.30530428886413574219,384
435,1455475661.37510132789611816406,392
436,1455475661.44473767280578613281,496
437,1455475661.51573872566223144531,592
438,1455475661.58527064323425292969,600
439,1455475661.65555095672607421875,512
440,1455475661.72445344924926757812,408
441,1455475661.79507780075073242188,376
442,1455475661.86554431915283203125,456
443,1455475661.93602585792541503906,568
444,1455475662.00548696517944335938,504
445,1455475662.07527852058410644531,600
446,1455475662.14519906044006347656,600
447,1455475662.21532845497131347656,504
448,1455475662.28438782691955566406,400
449,1455475662.35658121109008789062,376
450,1455475662.42506051063537597656,456
451,1455475662.49522924423217773438,568
452,1455475662.56523275375366210938,608
453,1455475662.6353702545166015625,544
454,1455475662.70590114593505859375,432
455,1455475662.77621364593505859375,376
456,1455475662.84467148780822753906,424
457,1455475662.91492366790771484375,536
458,1455475662.9846019744873046875,608
459,1455475663.05729436874389648438,576
460,1455475663.12467288970947265625,472
461,1455475663.1957149505615234375,384
462,1455475663.26485037803649902344,392
463,1455475663.33515620231628417969,496
464,1455475663.4064769744873046875,592
465,1455475663.47532558441162109375,600
466,1455475663.54481387138366699219,512
467,1455475663.61603879928588867188,400
468,1455475663.68614888191223144531,376
469,1455475663.75538921356201171875,456
470,1455475663.82537937164306640625,568
471,1455475663.8947391510009765625,608
472,1455475663.9646816253662109375,552
473,1455475664.03556704521179199219,432
474,1455475664.10665726661682128906,376
475,1455475664.17490458488464355469,416
476,1455475664.34491944313049316406,608
477,1455475664.34931111335754394531,608
478,1455475664.38514494895935058594,584
479,1455475664.45588517189025878906,472
480,1455475664.52451086044311523438,384
481,1455475664.59525704383850097656,392
482,1455475664.66535282135009765625,488
483,1455475664.73532390594482421875,592
484,1455475664.80529427528381347656,600
485,1455475664.87620830535888671875,512
486,1455475664.94480490684509277344,408
487,1455475665.01480197906494140625,376
488,1455475665.08520531654357910156,448
489,1455475665.15517854690551757812,560
490,1455475665.22454929351806640625,608
491,1455475665.29632043838500976562,552
492,1455475665.36473727226257324219,440
493,1455475665.43528413772583007812,376
494,1455475665.50609874725341796875,416
495,1455475665.57513380050659179688,528
496,1455475665.64501285552978515625,608
497,1455475665.71609640121459960938,584
498,1455475665.78536057472229003906,480
499,1455475665.85537052154541015625,384
500,1455475665.92540001869201660156,384
501,1455475665.99463725090026855469,480
502,1455475666.06445384025573730469,584
503,1455475666.13605356216430664062,608
504,1455475666.20555758476257324219,520
