id, time (s), size (bits)
0,1455475630.90461969375610351562,520
1,1455475630.95426058769226074219,584
2,1455475631.00466632843017578125,608
3,1455475631.05456614494323730469,576
4,1455475631.10477995872497558594,504
5,1455475631.15456867218017578125,424
6,1455475631.20406985282897949219,376
7,1455475631.25397205352783203125,384
8,1455475631.30398988723754882812,440
9,1455475631.35452723503112792969,528
10,1455475631.40433049201965332031,592
11,1455475631.45504283905029296875,608
12,1455475631.50431966781616210938,568
13,1455475631.55490970611572265625,496
14,1455475631.60444235801696777344,416
15,1455475631.65518903732299804688,376
16,1455475631.70439577102661132812,392
17,1455475631.75497293472290039062,456
18,1455475631.80419588088989257812,536
19,1455475631.85460329055786132812,600
20,1455475631.90493655204772949219,608
21,1455475631.95680999755859375,560
22,1455475632.00443577766418457031,488
23,1455475632.05471634864807128906,408
24,1455475632.10496973991394042969,376
25,1455475632.15438079833984375,392
26,1455475632.20434832572937011719,464
27,1455475632.25471854209899902344,544
28,1455475632.30496978759765625,600
29,1455475632.35454869270324707031,608
30,1455475632.40445685386657714844,560
31,1455475632.45505833625793457031,472
32,1455475632.50519800186157226562,400
33,1455475632.55479407310485839844,376
34,1455475632.60473918914794921875,400
35,1455475632.65412974357604980469,472
36,1455475632.70407032966613769531,552
37,1455475632.75518131256103515625,608
38,1455475632.80577301979064941406,600
39,1455475632.85474276542663574219,544
40,1455475632.90438866615295410156,464
41,1455475632.95497083663940429688,392
42,1455475633.00452494621276855469,376
43,1455475633.05463528633117675781,408
44,1455475633.10469102859497070312,480
45,1455475633.15399265289306640625,560
46,1455475633.20523595809936523438,608
47,1455475633.25531983375549316406,600
48,1455475633.304790496826171875,536
49,1455475633.35448956489562988281,456
50,1455475633.40433502197265625,392
51,1455475633.45442247390747070312,376
52,1455475633.50482606887817382812,416
53,1455475633.55460238456726074219,488
54,1455475633.60506939888000488281,568
55,1455475633.65452337265014648438,608
56,1455475633.70461010932922363281,592
57,1455475633.75606250762939453125,528
58,1455475633.80443263053894042969,448
59,1455475633.85501050949096679688,384
60,1455475633.90425229072570800781,376
61,1455475633.95445656776428222656,416
62,1455475634.00430893898010253906,496
63,1455475634.05462956428527832031,576
64,1455475634.10578417778015136719,608
65,1455475634.15434408187866210938,592
66,1455475634.20477151870727539062,520
67,1455475634.25452375411987304688,440
68,1455475634.30452084541320800781,384
69,1455475634.35506367683410644531,376
70,1455475634.40518641471862792969,432
71,1455475634.45472598075866699219,512
72,1455475634.50482439994812011719,584
73,1455475634.55494904518127441406,608
74,1455475634.60422945022583007812,584
75,1455475634.65479111671447753906,512
76,1455475634.70467543601989746094,432
77,1455475634.75440359115600585938,376
78,1455475634.806396484375,384
79,1455475634.85477590560913085938,440
80,1455475634.90432882308959960938,520
81,1455475634.95473122596740722656,592
82,1455475635.00416135787963867188,496
83,1455475635.05506205558776855469,576
84,1455475635.10468769073486328125,608
85,1455475635.15438699722290039062,592
86,1455475635.20446681976318359375,520
87,1455475635.25431895256042480469,440
88,1455475635.30461072921752929688,384
89,1455475635.35439348220825195312,376
90,1455475635.40661478042602539062,432
91,1455475635.45471143722534179688,512
92,1455475635.50432229042053222656,584
93,1455475635.55421352386474609375,608
94,1455475635.60512804985046386719,584
95,1455475635.65503597259521484375,512
96,1455475635.70581984519958496094,432
97,1455475635.75427865982055664062,376
98,1455475635.80461430549621582031,384
99,1455475635.8545932769775390625,432
100,1455475635.90488505363464355469,520
101,1455475635.95453929901123046875,584
102,1455475636.00546026229858398438,608
103,1455475636.05486702919006347656,576
104,1455475636.10481572151184082031,504
105,1455475636.15394520759582519531,424
106,1455475636.2050724029541015625,376
107,1455475636.2549686431884765625,384
108,1455475636.30402016639709472656,440
109,1455475636.35485196113586425781,528
110,1455475636.40528631210327148438,592
111,1455475636.454864501953125,608
112,1455475636.5041408538818359375,568
113,1455475636.55480980873107910156,496
114,1455475636.60467362403869628906,416
115,1455475636.65497231483459472656,376
116,1455475636.70469617843627929688,392
117,1455475636.754856109619140625,456
118,1455475636.80597376823425292969,536
119,1455475636.85478568077087402344,600
120,1455475636.90445351600646972656,608
121,1455475636.95417928695678710938,568
122,1455475637.00477385520935058594,488
123,1455475637.05466485023498535156,408
124,1455475637.10492014884948730469,376
125,1455475637.15470623970031738281,392
126,1455475637.20506405830383300781,464
127,1455475637.2543125152587890625,544
128,1455475637.30466318130493164062,600
129,1455475637.35463237762451171875,608
130,1455475637.40449976921081542969,560
131,1455475637.45485925674438476562,472
132,1455475637.504734039306640625,400
133,1455475637.55493807792663574219,376
134,1455475637.60620045661926269531,400
135,1455475637.65405368804931640625,472
136,1455475637.704875946044921875,552
137,1455475637.75487160682678222656,608
138,1455475637.80395245552062988281,600
139,1455475637.85402393341064453125,552
140,1455475637.90469288825988769531,464
141,1455475637.954357147216796875,400
142,1455475638.00609946250915527344,376
143,1455475638.05449008941650390625,408
144,1455475638.10475587844848632812,480
145,1455475638.15501260757446289062,560
146,1455475638.204502105712890625,608
147,1455475638.2545318603515625,600
148,1455475638.30502772331237792969,536
149,1455475638.35476064682006835938,456
150,1455475638.40588212013244628906,392
151,1455475638.45466518402099609375,376
152,1455475638.50473904609680175781,416
153,1455475638.55513691902160644531,488
154,1455475638.60493969917297363281,568
155,1455475638.65415716171264648438,608
156,1455475638.70465016365051269531,592
157,1455475638.75477290153503417969,528
158,1455475638.80489468574523925781,448
159,1455475638.85458230972290039062,384
160,1455475638.90513563156127929688,376
161,1455475638.95416808128356933594,416
162,1455475639.00424075126647949219,496
163,1455475639.05501079559326171875,576
164,1455475639.10574841499328613281,608
165,1455475639.15416717529296875,592
166,1455475639.20520281791687011719,520
167,1455475639.2556552886962890625,440
168,1455475639.30476093292236328125,384
169,1455475639.35487318038940429688,376
170,1455475639.40464997291564941406,424
171,1455475639.45481801033020019531,512
172,1455475639.50466990470886230469,584
173,1455475639.555179595947265625,608
174,1455475639.60525035858154296875,584
175,1455475639.6549968719482421875,512
176,1455475639.70420765876770019531,432
177,1455475639.75477623939514160156,376
178,1455475639.80493116378784179688,384
179,1455475639.85441422462463378906,432
180,1455475639.9049854278564453125,520
181,1455475639.95540213584899902344,592
182,1455475640.00615358352661132812,608
183,1455475640.05492186546325683594,576
184,1455475640.1041851043701171875,504
185,1455475640.15460991859436035156,424
186,1455475640.20433092117309570312,376
187,1455475640.25417494773864746094,384
188,1455475640.30483341217041015625,448
189,1455475640.35419106483459472656,528
190,1455475640.405414581298828125,592
191,1455475640.45504093170166015625,608
192,1455475640.50449156761169433594,568
193,1455475640.55472302436828613281,496
194,1455475640.60485386848449707031,416
195,1455475640.65512228012084960938,376
196,1455475640.70447278022766113281,392
197,1455475640.75489282608032226562,456
198,1455475640.80472731590270996094,536
199,1455475640.85431885719299316406,600
200,1455475640.90433025360107421875,608
201,1455475640.95481848716735839844,560
202,1455475641.00506353378295898438,480
203,1455475641.05528593063354492188,408
204,1455475641.10402131080627441406,376
205,1455475641.15514802932739257812,392
206,1455475641.20525765419006347656,464
207,1455475641.25511026382446289062,544
208,1455475641.30406165122985839844,600
209,1455475641.354999542236328125,608
210,1455475641.40462589263916015625,560
211,1455475641.45484852790832519531,472
212,1455475641.505035400390625,400
213,1455475641.55418825149536132812,376
214,1455475641.60621595382690429688,400
215,1455475641.65541100502014160156,472
216,1455475641.7048854827880859375,552
217,1455475641.75490069389343261719,608
218,1455475641.80460691452026367188,600
219,1455475641.85462021827697753906,544
220,1455475641.90500211715698242188,464
221,1455475641.95473575592041015625,392
222,1455475642.00493836402893066406,376
223,1455475642.05418658256530761719,408
224,1455475642.10441994667053222656,480
225,1455475642.15453577041625976562,560
226,1455475642.20498347282409667969,608
227,1455475642.254634857177734375,600
228,1455475642.30494236946105957031,536
229,1455475642.35424327850341796875,456
230,1455475642.4045085906982421875,392
231,1455475642.45513653755187988281,376
232,1455475642.50412249565124511719,416
233,1455475642.55506658554077148438,488
234,1455475642.60489130020141601562,568
235,1455475642.65451359748840332031,608
236,1455475642.70462799072265625,592
237,1455475642.755218505859375,528
238,1455475642.80535435676574707031,448
239,1455475642.8551006317138671875,384
240,1455475642.90480399131774902344,376
241,1455475642.95490860939025878906,424
242,1455475643.00464010238647460938,496
243,1455475643.05495166778564453125,576
244,1455475643.10512375831604003906,608
245,1455475643.15489673614501953125,592
246,1455475643.20549249649047851562,520
247,1455475643.25481843948364257812,440
248,1455475643.30496764183044433594,384
249,1455475643.35424256324768066406,376
250,1455475643.40465641021728515625,424
251,1455475643.45479702949523925781,512
252,1455475643.50450921058654785156,584
253,1455475643.55403161048889160156,608
254,1455475643.60486268997192382812,584
255,1455475643.65491414070129394531,512
256,1455475643.70475625991821289062,432
257,1455475643.75475668907165527344,376
258,1455475643.80450868606567382812,384
259,1455475643.85485744476318359375,440
260,1455475643.90418314933776855469,520
261,1455475643.95432376861572265625,584
262,1455475644.00677800178527832031,504
263,1455475644.05534029006958007812,576
264,1455475644.10462045669555664062,608
265,1455475644.15473484992980957031,592
266,1455475644.204193115234375,520
267,1455475644.25418519973754882812,440
268,1455475644.30460619926452636719,384
269,1455475644.35441422462463378906,376
270,1455475644.40593838691711425781,432
271,1455475644.45404052734375,512
272,1455475644.50411057472229003906,584
273,1455475644.55419087409973144531,608
274,1455475644.6049404144287109375,584
275,1455475644.6547145843505859375,512
276,1455475644.70492196083068847656,432
277,1455475644.75471544265747070312,376
278,1455475644.80544948577880859375,384
279,1455475644.85711956024169921875,440
280,1455475644.90409541130065917969,520
281,1455475644.95432162284851074219,584
282,1455475645.00494456291198730469,608
283,1455475645.05395603179931640625,576
284,1455475645.10397362709045410156,504
285,1455475645.15473866462707519531,424
286,1455475645.20606589317321777344,376
287,1455475645.25499987602233886719,384
288,1455475645.30500483512878417969,448
289,1455475645.35397791862487792969,528
290,1455475645.40431451797485351562,592
291,1455475645.4544887542724609375,608
292,1455475645.50486350059509277344,568
293,1455475645.55454349517822265625,496
294,1455475645.60512471199035644531,416
295,1455475645.654438018798828125,376
296,1455475645.70470142364501953125,392
297,1455475645.75404620170593261719,456
298,1455475645.805027008056640625,536
299,1455475645.85532093048095703125,600
300,1455475645.90480637550354003906,608
301,1455475645.95440936088562011719,568
302,1455475646.00636553764343261719,480
303,1455475646.05484247207641601562,408
304,1455475646.10402727127075195312,376
305,1455475646.15465545654296875,392
306,1455475646.20522022247314453125,464
307,1455475646.25477099418640136719,544
308,1455475646.30403423309326171875,600
309,1455475646.35476255416870117188,608
310,1455475646.4055271148681640625,552
311,1455475646.45550990104675292969,472
312,1455475646.50466370582580566406,400
313,1455475646.55633044242858886719,376
314,1455475646.60468006134033203125,400
315,1455475646.65502214431762695312,472
316,1455475646.704998016357421875,552
317,1455475646.75453281402587890625,608
318,1455475646.80566930770874023438,600
319,1455475646.8540363311767578125,552
320,1455475646.90533661842346191406,464
321,1455475646.95435452461242675781,400
322,1455475647.00492048263549804688,376
323,1455475647.05518579483032226562,408
324,1455475647.10455989837646484375,480
325,1455475647.15500497817993164062,560
326,1455475647.20488500595092773438,608
327,1455475647.25491809844970703125,600
328,1455475647.30405879020690917969,544
329,1455475647.35501241683959960938,456
330,1455475647.40424323081970214844,392
331,1455475647.45428586006164550781,376
332,1455475647.50467276573181152344,416
333,1455475647.55395817756652832031,488
334,1455475647.60612702369689941406,568
335,1455475647.6550846099853515625,608
336,1455475647.70431947708129882812,592
337,1455475647.75508189201354980469,528
338,1455475647.80400300025939941406,448
339,1455475647.85395979881286621094,384
340,1455475647.90488958358764648438,376
341,1455475647.95460414886474609375,424
342,1455475648.00485253334045410156,504
343,1455475648.05473113059997558594,576
344,1455475648.10443735122680664062,608
345,1455475648.15497279167175292969,592
346,1455475648.20432281494140625,520
347,1455475648.25429558753967285156,440
348,1455475648.30435204505920410156,384
349,1455475648.35495901107788085938,376
350,1455475648.40418696403503417969,424
351,1455475648.45453596115112304688,512
352,1455475648.50507092475891113281,584
353,1455475648.55468869209289550781,608
354,1455475648.60464906692504882812,584
355,1455475648.65491485595703125,512
356,1455475648.70462322235107421875,432
357,1455475648.75486898422241210938,376
358,1455475648.80531382560729980469,384
359,1455475648.85493922233581542969,440
360,1455475648.90451931953430175781,520
361,1455475648.95482873916625976562,592
362,1455475649.00415873527526855469,608
363,1455475649.05507516860961914062,576
364,1455475649.1048259735107421875,504
365,1455475649.15416455268859863281,424
366,1455475649.20526647567749023438,376
367,1455475649.25492787361145019531,384
368,1455475649.30497765541076660156,448
369,1455475649.35457825660705566406,528
370,1455475649.40406036376953125,592
371,1455475649.45551085472106933594,608
372,1455475649.50496196746826171875,568
373,1455475649.5541629791259765625,496
374,1455475649.60570621490478515625,416
375,1455475649.65440416336059570312,376
376,1455475649.70441985130310058594,392
377,1455475649.75518155097961425781,456
378,1455475649.80458831787109375,536
379,1455475649.85448694229125976562,600
380,1455475649.90471124649047851562,608
381,1455475649.95405650138854980469,568
382,1455475650.00563597679138183594,480
383,1455475650.05474090576171875,408
384,1455475650.10453581809997558594,376
385,1455475650.15401291847229003906,392
386,1455475650.20492649078369140625,464
387,1455475650.254207611083984375,544
388,1455475650.30499696731567382812,600
389,1455475650.354770660400390625,608
390,1455475650.4052524566650390625,552
391,1455475650.45453310012817382812,472
392,1455475650.50395536422729492188,400
393,1455475650.55428314208984375,376
394,1455475650.60447621345520019531,400
395,1455475650.65512681007385253906,472
396,1455475650.70451450347900390625,552
397,1455475650.75471925735473632812,608
398,1455475650.80531644821166992188,600
399,1455475650.85488772392272949219,544
400,1455475650.90579152107238769531,464
401,1455475650.95515942573547363281,392
402,1455475651.00485563278198242188,376
403,1455475651.05468344688415527344,408
404,1455475651.10487294197082519531,480
405,1455475651.15439939498901367188,560
406,1455475651.20523858070373535156,608
407,1455475651.25516104698181152344,600
408,1455475651.30480551719665527344,536
409,1455475651.35430407524108886719,456
410,1455475651.40488314628601074219,392
411,1455475651.45431208610534667969,376
412,1455475651.5039958953857421875,416
413,1455475651.55440449714660644531,488
414,1455475651.60539865493774414062,568
415,1455475651.65475511550903320312,608
416,1455475651.70477795600891113281,592
417,1455475651.75511384010314941406,528
418,1455475651.80453228950500488281,448
419,1455475651.85484480857849121094,384
420,1455475651.9044666290283203125,376
421,1455475651.954814910888671875,424
422,1455475652.00473666191101074219,496
423,1455475652.0546398162841796875,576
424,1455475652.10452675819396972656,608
425,1455475652.15446376800537109375,592
426,1455475652.20426845550537109375,520
427,1455475652.25451683998107910156,440
428,1455475652.30397343635559082031,384
429,1455475652.35410189628601074219,376
430,1455475652.4046001434326171875,424
431,1455475652.45530581474304199219,512
432,1455475652.50488543510437011719,584
433,1455475652.55489873886108398438,608
434,1455475652.60437273979187011719,584
435,1455475652.65413379669189453125,512
436,1455475652.70476555824279785156,432
437,1455475652.75466012954711914062,376
438,1455475652.80501270294189453125,384
439,1455475652.85451531410217285156,432
440,1455475652.90531945228576660156,520
441,1455475652.95409107208251953125,584
442,1455475653.00480890274047851562,504
443,1455475653.05429530143737792969,576
444,1455475653.104763031005859375,608
445,1455475653.15442514419555664062,592
446,1455475653.20515894889831542969,520
447,1455475653.25510621070861816406,440
448,1455475653.30441594123840332031,384
449,1455475653.3549594879150390625,376
450,1455475653.40427374839782714844,424
451,1455475653.45469021797180175781,512
452,1455475653.50470423698425292969,584
453,1455475653.55427479743957519531,608
454,1455475653.60618185997009277344,584
455,1455475653.65507578849792480469,512
456,1455475653.70489668846130371094,432
457,1455475653.75495958328247070312,376
458,1455475653.80669522285461425781,384
459,1455475653.85396575927734375,432
460,1455475653.90508198738098144531,520
461,1455475653.95505404472351074219,592
462,1455475654.00499773025512695312,608
463,1455475654.05447244644165039062,576
464,1455475654.10488772392272949219,504
465,1455475654.15492200851440429688,424
466,1455475654.20419192314147949219,376
467,1455475654.25471377372741699219,384
468,1455475654.30450868606567382812,448
469,1455475654.35485625267028808594,528
470,1455475654.40513062477111816406,592
471,1455475654.45406627655029296875,608
472,1455475654.50477671623229980469,568
473,1455475654.55518031120300292969,496
474,1455475654.604824066162109375,416
475,1455475654.655460357666015625,376
476,1455475654.70468044281005859375,392
477,1455475654.75504088401794433594,456
478,1455475654.8059940338134765625,536
479,1455475654.85505270957946777344,600
480,1455475654.90494227409362792969,608
481,1455475654.95426273345947265625,568
482,1455475655.00537109375,480
483,1455475655.05460882186889648438,408
484,1455475655.10501885414123535156,376
485,1455475655.15475487709045410156,392
486,1455475655.20579767227172851562,464
487,1455475655.25471091270446777344,544
488,1455475655.30416464805603027344,600
489,1455475655.35477972030639648438,608
490,1455475655.40424323081970214844,560
491,1455475655.45440816879272460938,472
492,1455475655.5050144195556640625,400
493,1455475655.55433940887451171875,376
494,1455475655.60432767868041992188,400
495,1455475655.65517282485961914062,472
496,1455475655.704532623291015625,552
497,1455475655.75515913963317871094,608
498,1455475655.80438470840454101562,600
499,1455475655.85476088523864746094,544
500,1455475655.90451836585998535156,464
501,1455475655.9544696807861328125,400
502,1455475656.00620245933532714844,376
503,1455475656.05479001998901367188,408
504,1455475656.10483717918395996094,480
505,1455475656.15482401847839355469,560
