id, time (s), size (bits)
0,1455999435.89887142181396484375,1455999435.89922618865966796875,7136
1,1455999436.00459218025207519531,1455999436.00480341911315917969,7240
2,1455999436.1055889129638671875,1455999436.10581207275390625,7336
3,1455999436.20691728591918945312,1455999436.20713639259338378906,7424
4,1455999436.31006789207458496094,1455999436.31028532981872558594,7512
5,1455999436.43225383758544921875,1455999436.43255686759948730469,7592
6,1455999436.5555934906005859375,1455999436.55580973625183105469,7672
7,1455999436.67986726760864257812,1455999436.68008708953857421875,7736
8,1455999436.80500102043151855469,1455999436.80522418022155761719,7800
9,1455999436.93073272705078125,1455999436.93096661567687988281,7840
10,1455999437.05701470375061035156,1455999437.05722665786743164062,7872
11,1455999437.18354892730712890625,1455999437.18377351760864257812,7888
12,1455999437.3097629547119140625,1455999437.30998206138610839844,7888
13,1455999437.4360904693603515625,1455999437.43630766868591308594,7880
14,1455999437.56207275390625,1455999437.56228852272033691406,7856
15,1455999437.68747663497924804688,1455999437.68769478797912597656,7816
16,1455999437.8123531341552734375,1455999437.8126506805419921875,7768
17,1455999437.93603229522705078125,1455999437.93625330924987792969,7704
18,1455999438.05892610549926757812,1455999438.05915236473083496094,7624
19,1455999438.1803607940673828125,1455999438.18059229850769042969,7544
20,1455999438.3005161285400390625,1455999438.30073618888854980469,7448
21,1455999438.41924929618835449219,1455999438.41946935653686523438,7344
22,1455999438.53638553619384765625,1455999438.53661036491394042969,7232
23,1455999438.65216112136840820312,1455999438.65238618850708007812,7120
24,1455999438.76608014106750488281,1455999438.76629590988159179688,7000
25,1455999438.87818741798400878906,1455999438.87840700149536132812,6872
26,1455999438.9885425567626953125,1455999438.98875904083251953125,6744
27,1455999439.09721088409423828125,1455999439.0974330902099609375,6616
28,1455999439.20364904403686523438,1455999439.20387196540832519531,6480
29,1455999439.30845999717712402344,1455999439.30869626998901367188,6352
30,1455999439.41138553619384765625,1455999439.41160607337951660156,6224
31,1455999439.51273846626281738281,1455999439.51294803619384765625,6096
32,1455999439.61365222930908203125,1455999439.6138668060302734375,5968
33,1455999439.71636033058166503906,1455999439.71658372879028320312,5840
34,1455999439.8177547454833984375,1455999439.81797385215759277344,5712
35,1455999439.91804361343383789062,1455999439.91825890541076660156,5592
36,1455999440.01923799514770507812,1455999440.01945471763610839844,5472
37,1455999440.11957526206970214844,1455999440.1197967529296875,5352
38,1455999440.22091460227966308594,1455999440.22113728523254394531,5240
39,1455999440.32298064231872558594,1455999440.3232097625732421875,5128
40,1455999440.4230289459228515625,1455999440.42324709892272949219,5024
41,1455999440.52290511131286621094,1455999440.52311944961547851562,4928
42,1455999440.62289166450500488281,1455999440.62311387062072753906,4832
43,1455999440.72396039962768554688,1455999440.7241840362548828125,4744
44,1455999440.82545971870422363281,1455999440.82567381858825683594,4664
45,1455999440.92679476737976074219,1455999440.92701554298400878906,4592
46,1455999441.02838611602783203125,1455999441.02861285209655761719,4520
47,1455999441.12972378730773925781,1455999441.1299419403076171875,4464
48,1455999441.23163819313049316406,1455999441.23185873031616210938,4416
49,1455999441.33298993110656738281,1455999441.3332195281982421875,4376
50,1455999441.43325924873352050781,1455999441.43348193168640136719,4336
51,1455999441.53286838531494140625,1455999441.53308534622192382812,4312
52,1455999441.63304948806762695312,1455999441.633266448974609375,4296
53,1455999441.73410391807556152344,1455999441.73432445526123046875,4296
54,1455999441.83565425872802734375,1455999441.83587145805358886719,4296
55,1455999441.93619894981384277344,1455999441.93642282485961914062,4304
56,1455999442.036159515380859375,1455999442.03638005256652832031,4328
57,1455999442.13611245155334472656,1455999442.13633608818054199219,4352
58,1455999442.23658442497253417969,1455999442.23680615425109863281,4392
59,1455999442.33805036544799804688,1455999442.33827829360961914062,4432
60,1455999442.44017529487609863281,1455999442.44039630889892578125,4488
61,1455999442.54056787490844726562,1455999442.54078960418701171875,4552
62,1455999442.64111185073852539062,1455999442.64132785797119140625,4624
63,1455999442.742855072021484375,1455999442.74308872222900390625,4696
64,1455999442.84518957138061523438,1455999442.84549641609191894531,4784
65,1455999442.948383331298828125,1455999442.94860005378723144531,4872
66,1455999443.04860472679138183594,1455999443.048824310302734375,4968
67,1455999443.14883089065551757812,1455999443.14904928207397460938,5072
68,1455999443.25002980232238769531,1455999443.25024509429931640625,5176
69,1455999443.35121774673461914062,1455999443.35145425796508789062,5288
70,1455999443.45268416404724121094,1455999443.45289659500122070312,5408
71,1455999443.55342888832092285156,1455999443.55365133285522460938,5528
72,1455999443.65442180633544921875,1455999443.65464305877685546875,5648
73,1455999443.754978179931640625,1455999443.75519561767578125,5768
74,1455999443.85588598251342773438,1455999443.8561000823974609375,5896
75,1455999443.95668172836303710938,1455999443.95689988136291503906,6024
76,1455999444.0568180084228515625,1455999444.05702900886535644531,6144
77,1455999444.15722966194152832031,1455999444.15744423866271972656,6272
78,1455999444.2582073211669921875,1455999444.25841975212097167969,6400
79,1455999444.35914731025695800781,1455999444.35938596725463867188,6520
80,1455999444.46169352531433105469,1455999444.46191453933715820312,6648
81,1455999444.56371903419494628906,1455999444.56393551826477050781,6768
82,1455999444.66408944129943847656,1455999444.66430425643920898438,6880
83,1455999444.76462221145629882812,1455999444.76483440399169921875,6992
84,1455999444.86605548858642578125,1455999444.86627149581909179688,7104
85,1455999444.97191381454467773438,1455999444.97213411331176757812,7208
86,1455999445.0904178619384765625,1455999445.09063625335693359375,7320
87,1455999445.21032357215881347656,1455999445.21054148674011230469,7424
88,1455999445.33151125907897949219,1455999445.33173131942749023438,7520
89,1455999445.45421075820922851562,1455999445.45444846153259277344,7608
90,1455999445.57771182060241699219,1455999445.57793259620666503906,7688
91,1455999445.70217728614807128906,1455999445.70247650146484375,7752
92,1455999445.82737088203430175781,1455999445.82759070396423339844,7808
93,1455999445.95344114303588867188,1455999445.95366120338439941406,7848
94,1455999446.07956409454345703125,1455999446.07978224754333496094,7880
95,1455999446.206085205078125,1455999446.20629930496215820312,7888
96,1455999446.32894444465637207031,1455999446.32916212081909179688,7888
97,1455999446.45862126350402832031,1455999446.45883965492248535156,7872
98,1455999446.58464884757995605469,1455999446.58486318588256835938,7848
99,1455999446.70989322662353515625,1455999446.71011948585510253906,7808
100,1455999446.83435082435607910156,1455999446.83457612991333007812,7752
101,1455999446.95790624618530273438,1455999446.95812726020812988281,7688
102,1455999447.08039689064025878906,1455999447.08061814308166503906,7608
103,1455999447.20164394378662109375,1455999447.20186328887939453125,7520
104,1455999447.32150578498840332031,1455999447.32172107696533203125,7424
105,1455999447.43992018699645996094,1455999447.44013667106628417969,7320
106,1455999447.55677366256713867188,1455999447.55699372291564941406,7208
107,1455999447.6719226837158203125,1455999447.67213916778564453125,7088
108,1455999447.78550767898559570312,1455999447.78572845458984375,6968
109,1455999447.89721608161926269531,1455999447.89744806289672851562,6840
110,1455999448.0070476531982421875,1455999448.00726628303527832031,6712
111,1455999448.11500263214111328125,1455999448.11522626876831054688,6584
112,1455999448.22157835960388183594,1455999448.22179722785949707031,6456
113,1455999448.32649898529052734375,1455999448.32671356201171875,6328
114,1455999448.42918920516967773438,1455999448.42940688133239746094,6200
115,1455999448.53026628494262695312,1455999448.5304851531982421875,6072
116,1455999448.63082933425903320312,1455999448.63104796409606933594,5944
117,1455999448.73262476921081542969,1455999448.73284363746643066406,5816
118,1455999448.83366227149963378906,1455999448.83388352394104003906,5696
119,1455999448.93311524391174316406,1455999448.93378949165344238281,5568
120,1455999449.03343439102172851562,1455999449.03365468978881835938,5448
121,1455999449.13377547264099121094,1455999449.13399553298950195312,5336
122,1455999449.23440957069396972656,1455999449.23463296890258789062,5224
123,1455999449.3355865478515625,1455999449.33580183982849121094,5112
124,1455999449.43533015251159667969,1455999449.43555283546447753906,5008
125,1455999449.53573179244995117188,1455999449.53595328330993652344,4912
126,1455999449.63634657859802246094,1455999449.63656949996948242188,4824
127,1455999449.73670697212219238281,1455999449.73694300651550292969,4736
128,1455999449.83927059173583984375,1455999449.83948945999145507812,4656
129,1455999449.94280481338500976562,1455999449.94304203987121582031,4576
130,1455999450.04317331314086914062,1455999450.04339146614074707031,4512
131,1455999450.14305543899536132812,1455999450.14327788352966308594,4456
132,1455999450.24305677413940429688,1455999450.24327826499938964844,4408
133,1455999450.343902587890625,1455999450.34411692619323730469,4368
134,1455999450.44396829605102539062,1455999450.44418740272521972656,4336
135,1455999450.54483580589294433594,1455999450.54505443572998046875,4312
136,1455999450.64492297172546386719,1455999450.64513921737670898438,4296
137,1455999450.74481558799743652344,1455999450.745025634765625,4296
138,1455999450.84437847137451171875,1455999450.84458899497985839844,4296
139,1455999450.94327640533447265625,1455999450.94350433349609375,4304
140,1455999451.04224324226379394531,1455999451.04253697395324707031,4328
141,1455999451.14158082008361816406,1455999451.1417942047119140625,4352
142,1455999451.25038433074951171875,1455999451.25059556961059570312,4392
143,1455999451.35035371780395507812,1455999451.35056424140930175781,4440
144,1455999451.45066928863525390625,1455999451.45088076591491699219,4496
145,1455999451.5499248504638671875,1455999451.55013251304626464844,4560
146,1455999451.64844489097595214844,1455999451.64865350723266601562,4624
147,1455999451.74795246124267578125,1455999451.74816370010375976562,4704
148,1455999451.84773492813110351562,1455999451.84794831275939941406,4784
149,1455999451.94732832908630371094,1455999451.94755315780639648438,4872
150,1455999452.04629802703857421875,1455999452.04651618003845214844,4968
151,1455999452.14538884162902832031,1455999452.14559912681579589844,5064
152,1455999452.2446956634521484375,1455999452.24490833282470703125,5176
153,1455999452.34548401832580566406,1455999452.34569811820983886719,5288
154,1455999452.4444751739501953125,1455999452.44468855857849121094,5400
155,1455999452.54352211952209472656,1455999452.54374551773071289062,5512
156,1455999452.6430683135986328125,1455999452.64328217506408691406,5632
157,1455999452.74252152442932128906,1455999452.742725372314453125,5752
158,1455999452.84264469146728515625,1455999452.84285593032836914062,5880
159,1455999452.94211125373840332031,1455999452.94233393669128417969,6000
160,1455999453.04121327400207519531,1455999453.04142093658447265625,6128
161,1455999453.14121723175048828125,1455999453.14143013954162597656,6256
162,1455999453.24143362045288085938,1455999453.24163675308227539062,6376
163,1455999453.34219384193420410156,1455999453.34250617027282714844,6504
164,1455999453.44114327430725097656,1455999453.44135141372680664062,6624
165,1455999453.54056549072265625,1455999453.54077887535095214844,6744
166,1455999453.64038395881652832031,1455999453.64059376716613769531,6856
167,1455999453.74071407318115234375,1455999453.74092769622802734375,6968
168,1455999453.84145045280456542969,1455999453.84166407585144042969,7080
169,1455999453.95424294471740722656,1455999453.95451712608337402344,7192
170,1455999454.07257294654846191406,1455999454.0727748870849609375,7304
171,1455999454.19206953048706054688,1455999454.19228053092956542969,7408
172,1455999454.31338286399841308594,1455999454.31359529495239257812,7512
173,1455999454.43546152114868164062,1455999454.43567538261413574219,7600
174,1455999454.55896425247192382812,1455999454.55917239189147949219,7680
175,1455999454.68348860740661621094,1455999454.68370556831359863281,7744
176,1455999454.8084888458251953125,1455999454.80870318412780761719,7800
177,1455999454.93435907363891601562,1455999454.93456745147705078125,7840
178,1455999455.06043863296508789062,1455999455.060649871826171875,7872
179,1455999455.18695831298828125,1455999455.18717479705810546875,7888
180,1455999455.31356191635131835938,1455999455.31377720832824707031,7888
181,1455999455.44747877120971679688,1455999455.44769906997680664062,7880
182,1455999455.57318544387817382812,1455999455.57345151901245117188,7848
183,1455999455.69833278656005859375,1455999455.69854950904846191406,7808
184,1455999455.82323789596557617188,1455999455.82345223426818847656,7760
185,1455999455.94670748710632324219,1455999455.94692635536193847656,7696
186,1455999456.06929755210876464844,1455999456.06951761245727539062,7616
187,1455999456.19063329696655273438,1455999456.19084715843200683594,7528
188,1455999456.31064105033874511719,1455999456.31085824966430664062,7432
189,1455999456.42932915687561035156,1455999456.42955923080444335938,7328
190,1455999456.546123504638671875,1455999456.54634070396423339844,7216
191,1455999456.66152834892272949219,1455999456.661762237548828125,7104
192,1455999456.77533984184265136719,1455999456.77556252479553222656,6984
193,1455999456.88731646537780761719,1455999456.88753938674926757812,6856
194,1455999456.99718451499938964844,1455999456.997402191162109375,6728
195,1455999457.10551047325134277344,1455999457.1057338714599609375,6600
196,1455999457.21199893951416015625,1455999457.21221780776977539062,6472
197,1455999457.31666898727416992188,1455999457.31688833236694335938,6336
198,1455999457.41968941688537597656,1455999457.41990399360656738281,6208
199,1455999457.52175807952880859375,1455999457.52198696136474609375,6080
200,1455999457.62287998199462890625,1455999457.62309360504150390625,5952
201,1455999457.7237110137939453125,1455999457.7240962982177734375,5824
202,1455999457.82428050041198730469,1455999457.82467031478881835938,5704
203,1455999457.92435622215270996094,1455999457.92457365989685058594,5584
204,1455999458.0252933502197265625,1455999458.02569508552551269531,5464
205,1455999458.12620854377746582031,1455999458.126598358154296875,5344
206,1455999458.22717571258544921875,1455999458.22756528854370117188,5232
207,1455999458.32876515388488769531,1455999458.329181671142578125,5120
208,1455999458.43008136749267578125,1455999458.43030118942260742188,5016
209,1455999458.53160858154296875,1455999458.53184866905212402344,4920
210,1455999458.6327667236328125,1455999458.63297581672668457031,4824
211,1455999458.73365044593811035156,1455999458.73387598991394042969,4736
212,1455999458.83425498008728027344,1455999458.83466100692749023438,4656
213,1455999458.93415474891662597656,1455999458.93454742431640625,4584
214,1455999459.03470563888549804688,1455999459.03510546684265136719,4520
215,1455999459.13550686836242675781,1455999459.13590168952941894531,4464
216,1455999459.23622369766235351562,1455999459.23662257194519042969,4416
217,1455999459.33812594413757324219,1455999459.33833932876586914062,4368
218,1455999459.43889713287353515625,1455999459.43912076950073242188,4336
219,1455999459.54040598869323730469,1455999459.54063105583190917969,4312
220,1455999459.64194440841674804688,1455999459.64216256141662597656,4296
221,1455999459.7428607940673828125,1455999459.74306726455688476562,4296
222,1455999459.84229350090026855469,1455999459.84258961677551269531,4296
223,1455999459.94150424003601074219,1455999459.94190478324890136719,4304
224,1455999460.04152822494506835938,1455999460.04192352294921875,4328
225,1455999460.14154386520385742188,1455999460.14193892478942871094,4352
226,1455999460.24088072776794433594,1455999460.24126100540161132812,4392
227,1455999460.3405609130859375,1455999460.34077525138854980469,4440
228,1455999460.43995809555053710938,1455999460.44016981124877929688,4488
229,1455999460.53982186317443847656,1455999460.54004740715026855469,4552
230,1455999460.6387615203857421875,1455999460.63897585868835449219,4616
231,1455999460.73760271072387695312,1455999460.73781609535217285156,4696
232,1455999460.83726453781127929688,1455999460.83747601509094238281,4776
233,1455999460.93706583976745605469,1455999460.93727898597717285156,4864
234,1455999461.03712868690490722656,1455999461.03734159469604492188,4960
235,1455999461.1376285552978515625,1455999461.13784241676330566406,5056
236,1455999461.23697137832641601562,1455999461.23718523979187011719,5168
237,1455999461.33680224418640136719,1455999461.33701658248901367188,5272
238,1455999461.43651914596557617188,1455999461.43673014640808105469,5384
239,1455999461.53607869148254394531,1455999461.53630518913269042969,5504
240,1455999461.635463714599609375,1455999461.63567948341369628906,5624
241,1455999461.73442888259887695312,1455999461.73463678359985351562,5744
242,1455999461.83442664146423339844,1455999461.83463835716247558594,5872
243,1455999461.93425059318542480469,1455999461.93446111679077148438,5992
244,1455999462.03428149223327636719,1455999462.03449559211730957031,6120
245,1455999462.13348078727722167969,1455999462.13369011878967285156,6240
246,1455999462.2327823638916015625,1455999462.23298525810241699219,6368
247,1455999462.33302402496337890625,1455999462.33323359489440917969,6488
248,1455999462.43254804611206054688,1455999462.4327564239501953125,6608
249,1455999462.531658172607421875,1455999462.53189134597778320312,6728
250,1455999462.63105416297912597656,1455999462.63126492500305175781,6848
251,1455999462.73076725006103515625,1455999462.73097705841064453125,6960
252,1455999462.831172943115234375,1455999462.83138227462768554688,7064
253,1455999462.94458699226379394531,1455999462.94479703903198242188,7184
254,1455999463.06266546249389648438,1455999463.0628681182861328125,7296
255,1455999463.18213582038879394531,1455999463.18235898017883300781,7400
256,1455999463.30345177650451660156,1455999463.30366587638854980469,7504
257,1455999463.42545104026794433594,1455999463.42566347122192382812,7592
258,1455999463.54880666732788085938,1455999463.54901933670043945312,7672
259,1455999463.67340993881225585938,1455999463.67364048957824707031,7736
260,1455999463.79858064651489257812,1455999463.79878830909729003906,7800
261,1455999463.92422938346862792969,1455999463.92444205284118652344,7840
262,1455999464.05021643638610839844,1455999464.05042600631713867188,7872
263,1455999464.17676091194152832031,1455999464.1770534515380859375,7888
264,1455999464.30325913429260253906,1455999464.3034725189208984375,7888
265,1455999464.43701720237731933594,1455999464.43724012374877929688,7880
266,1455999464.56297636032104492188,1455999464.56319308280944824219,7856
267,1455999464.68827319145202636719,1455999464.68849062919616699219,7816
268,1455999464.8131427764892578125,1455999464.81335568428039550781,7760
269,1455999464.93662476539611816406,1455999464.93685460090637207031,7696
270,1455999465.05949378013610839844,1455999465.05971193313598632812,7624
271,1455999465.18081974983215332031,1455999465.18103694915771484375,7536
272,1455999465.30100655555725097656,1455999465.30122160911560058594,7440
273,1455999465.41966652870178222656,1455999465.419887542724609375,7336
274,1455999465.53673458099365234375,1455999465.53695726394653320312,7224
275,1455999465.65206789970397949219,1455999465.65228676795959472656,7112
276,1455999465.76598358154296875,1455999465.76620149612426757812,6992
