id, time (s), size (bits)
0,1455483674.303493499755859375,600
1,1455483674.35310697555541992188,608
2,1455483674.40350317955017089844,560
3,1455483674.45378398895263671875,480
4,1455483674.50385022163391113281,400
5,1455483674.5538330078125,376
6,1455483674.60346460342407226562,400
7,1455483674.65382122993469238281,472
8,1455483674.70397806167602539062,552
9,1455483674.75401043891906738281,608
10,1455483674.80399751663208007812,600
11,1455483674.85391139984130859375,552
12,1455483674.90348935127258300781,464
13,1455483674.95417666435241699219,400
14,1455483675.00326585769653320312,376
15,1455483675.05396819114685058594,408
16,1455483675.10364389419555664062,480
17,1455483675.15351414680480957031,560
18,1455483675.20376110076904296875,608
19,1455483675.25353956222534179688,600
20,1455483675.30434370040893554688,536
21,1455483675.35365033149719238281,456
22,1455483675.40387129783630371094,392
23,1455483675.454273223876953125,376
24,1455483675.50379705429077148438,408
25,1455483675.55410552024841308594,488
26,1455483675.60376667976379394531,568
27,1455483675.65398573875427246094,608
28,1455483675.70951604843139648438,592
29,1455483675.75344967842102050781,536
30,1455483675.80351710319519042969,448
31,1455483675.85392618179321289062,384
32,1455483675.90403985977172851562,376
33,1455483675.95360422134399414062,416
34,1455483676.00425577163696289062,496
35,1455483676.0543003082275390625,576
36,1455483676.10412740707397460938,608
37,1455483676.15342545509338378906,592
38,1455483676.20581793785095214844,520
39,1455483676.25319385528564453125,440
40,1455483676.30485129356384277344,384
41,1455483676.35389852523803710938,376
42,1455483676.40412497520446777344,424
43,1455483676.45308899879455566406,504
44,1455483676.50323557853698730469,584
45,1455483676.55462765693664550781,608
46,1455483676.60368037223815917969,584
47,1455483676.65376996994018554688,512
48,1455483676.70416045188903808594,432
49,1455483676.75371837615966796875,376
50,1455483676.80359506607055664062,376
51,1455483676.85403800010681152344,432
52,1455483676.90346097946166992188,520
53,1455483676.9551982879638671875,592
54,1455483677.0043430328369140625,608
55,1455483677.05457568168640136719,576
56,1455483677.10377216339111328125,504
57,1455483677.15323734283447265625,424
58,1455483677.20497584342956542969,376
59,1455483677.25466585159301757812,384
60,1455483677.303310394287109375,440
61,1455483677.35527634620666503906,528
62,1455483677.40436339378356933594,592
63,1455483677.45388054847717285156,608
64,1455483677.50423741340637207031,568
65,1455483677.55580663681030273438,488
66,1455483677.60373210906982421875,416
67,1455483677.65372991561889648438,376
68,1455483677.70374917984008789062,392
69,1455483677.75453543663024902344,456
70,1455483677.8031215667724609375,536
71,1455483677.85412502288818359375,600
72,1455483677.90390515327453613281,608
73,1455483677.95375776290893554688,568
74,1455483678.00365734100341796875,488
75,1455483678.05444788932800292969,408
76,1455483678.10431551933288574219,376
77,1455483678.15500092506408691406,392
78,1455483678.20465874671936035156,464
79,1455483678.25387072563171386719,544
80,1455483678.30326485633850097656,600
81,1455483678.35325551033020019531,608
82,1455483678.40470719337463378906,560
83,1455483678.45523285865783691406,472
84,1455483678.50408506393432617188,400
85,1455483678.55500030517578125,376
86,1455483678.60381388664245605469,400
87,1455483678.65394735336303710938,472
88,1455483678.70365142822265625,552
89,1455483678.75539350509643554688,608
90,1455483678.80398321151733398438,600
91,1455483678.85416841506958007812,552
92,1455483678.90395617485046386719,464
93,1455483678.95410108566284179688,400
94,1455483679.00407743453979492188,376
95,1455483679.05418491363525390625,408
96,1455483679.10420250892639160156,480
97,1455483679.15327954292297363281,560
98,1455483679.20408606529235839844,608
99,1455483679.25458884239196777344,600
100,1455483679.30713295936584472656,536
101,1455483679.35540914535522460938,456
102,1455483679.40413665771484375,392
103,1455483679.4554195404052734375,376
104,1455483679.50432872772216796875,416
105,1455483679.55408263206481933594,488
106,1455483679.60573434829711914062,568
107,1455483679.65604305267333984375,608
108,1455483679.70312452316284179688,600
109,1455483679.75453042984008789062,528
110,1455483679.80410861968994140625,448
111,1455483679.85429024696350097656,384
112,1455483679.90375971794128417969,376
113,1455483679.95467138290405273438,424
114,1455483680.00362801551818847656,496
115,1455483680.05435013771057128906,576
116,1455483680.103790283203125,608
117,1455483680.15395426750183105469,592
118,1455483680.20449280738830566406,520
119,1455483680.25438690185546875,440
120,1455483680.30379581451416015625,384
121,1455483680.35353493690490722656,376
122,1455483680.40315937995910644531,424
123,1455483680.45405936241149902344,512
124,1455483680.5060272216796875,584
125,1455483680.55485701560974121094,608
126,1455483680.60377955436706542969,584
127,1455483680.65466523170471191406,512
128,1455483680.703411102294921875,432
129,1455483680.75360846519470214844,376
130,1455483680.80380892753601074219,376
131,1455483680.8556365966796875,440
132,1455483680.90402245521545410156,520
133,1455483680.95445609092712402344,584
134,1455483681.00362229347229003906,496
135,1455483681.05371761322021484375,576
136,1455483681.10336017608642578125,608
137,1455483681.15604925155639648438,592
138,1455483681.20630764961242675781,520
139,1455483681.25434160232543945312,440
140,1455483681.30346965789794921875,384
141,1455483681.3550205230712890625,376
142,1455483681.40422606468200683594,424
143,1455483681.45575261116027832031,512
144,1455483681.5034999847412109375,584
145,1455483681.55457901954650878906,608
146,1455483681.60382127761840820312,584
147,1455483681.65568852424621582031,512
148,1455483681.70462346076965332031,432
149,1455483681.75399351119995117188,376
150,1455483681.803466796875,376
151,1455483681.85392928123474121094,432
152,1455483681.90408229827880859375,520
153,1455483681.95433306694030761719,584
154,1455483682.00362992286682128906,608
155,1455483682.0544452667236328125,576
156,1455483682.10396170616149902344,504
157,1455483682.15393924713134765625,424
158,1455483682.20708703994750976562,376
159,1455483682.25427794456481933594,384
160,1455483682.30542731285095214844,448
161,1455483682.35492801666259765625,528
162,1455483682.40383267402648925781,592
163,1455483682.45523619651794433594,608
164,1455483682.50380730628967285156,576
165,1455483682.55378437042236328125,496
166,1455483682.60443544387817382812,416
167,1455483682.65450501441955566406,376
168,1455483682.70348691940307617188,384
169,1455483682.75403618812561035156,456
170,1455483682.80409097671508789062,536
171,1455483682.85358595848083496094,600
172,1455483682.90357995033264160156,608
173,1455483682.95428323745727539062,568
174,1455483683.00387263298034667969,488
175,1455483683.053924560546875,408
176,1455483683.10371327400207519531,376
177,1455483683.15418219566345214844,392
178,1455483683.20383548736572265625,464
179,1455483683.25395298004150390625,544
180,1455483683.30660128593444824219,600
181,1455483683.35480380058288574219,608
182,1455483683.40403437614440917969,560
183,1455483683.45457720756530761719,472
184,1455483683.50377225875854492188,400
185,1455483683.55360007286071777344,376
186,1455483683.60568737983703613281,400
187,1455483683.65369200706481933594,472
188,1455483683.70422244071960449219,552
189,1455483683.75384569168090820312,608
190,1455483683.80416178703308105469,600
191,1455483683.85388088226318359375,552
192,1455483683.90666270256042480469,464
193,1455483683.953136444091796875,400
194,1455483684.00338101387023925781,376
195,1455483684.05553293228149414062,408
196,1455483684.10318231582641601562,480
197,1455483684.15600752830505371094,560
198,1455483684.20393466949462890625,608
199,1455483684.25375103950500488281,600
200,1455483684.30432224273681640625,536
201,1455483684.35440993309020996094,456
202,1455483684.40543365478515625,392
203,1455483684.4559345245361328125,376
204,1455483684.50322628021240234375,408
205,1455483684.55458498001098632812,488
206,1455483684.60336661338806152344,568
207,1455483684.6542224884033203125,608
208,1455483684.70565629005432128906,592
209,1455483684.75381326675415039062,528
210,1455483684.80318236351013183594,448
211,1455483684.85362720489501953125,384
212,1455483684.9043903350830078125,376
213,1455483684.95394539833068847656,416
214,1455483685.00560259819030761719,504
215,1455483685.05580878257751464844,576
216,1455483685.10366296768188476562,608
217,1455483685.15411305427551269531,592
218,1455483685.20366382598876953125,520
219,1455483685.25613451004028320312,440
220,1455483685.30336499214172363281,384
221,1455483685.35332179069519042969,376
222,1455483685.4042339324951171875,424
223,1455483685.45457911491394042969,512
224,1455483685.50365591049194335938,584
225,1455483685.55386447906494140625,608
226,1455483685.60334563255310058594,584
227,1455483685.65377211570739746094,512
228,1455483685.70371913909912109375,432
229,1455483685.75410151481628417969,376
230,1455483685.80384564399719238281,384
231,1455483685.853443145751953125,432
232,1455483685.90344643592834472656,520
233,1455483685.95531892776489257812,592
234,1455483686.00431585311889648438,608
235,1455483686.05325102806091308594,576
236,1455483686.10475444793701171875,504
237,1455483686.1542758941650390625,424
238,1455483686.20419549942016601562,376
239,1455483686.25499939918518066406,384
240,1455483686.30359053611755371094,440
241,1455483686.35325074195861816406,528
242,1455483686.403194427490234375,592
243,1455483686.45371723175048828125,608
244,1455483686.50578022003173828125,568
245,1455483686.55507802963256835938,496
246,1455483686.60485529899597167969,416
247,1455483686.65403723716735839844,376
248,1455483686.70365571975708007812,384
249,1455483686.75373053550720214844,448
250,1455483686.80575037002563476562,536
251,1455483686.85417699813842773438,600
252,1455483686.90368032455444335938,608
253,1455483686.95433831214904785156,568
254,1455483687.00394225120544433594,488
255,1455483687.05450367927551269531,408
256,1455483687.10398221015930175781,376
257,1455483687.15401721000671386719,392
258,1455483687.20457243919372558594,464
259,1455483687.25612401962280273438,544
260,1455483687.30352830886840820312,600
261,1455483687.35465979576110839844,608
262,1455483687.40437412261962890625,560
263,1455483687.45467448234558105469,472
264,1455483687.50445556640625,400
265,1455483687.55400013923645019531,376
266,1455483687.60416746139526367188,400
267,1455483687.65413522720336914062,472
268,1455483687.70651340484619140625,552
269,1455483687.75458765029907226562,608
270,1455483687.803375244140625,608
271,1455483687.8542079925537109375,552
272,1455483687.90396761894226074219,464
273,1455483687.953647613525390625,400
274,1455483688.00443148612976074219,376
275,1455483688.05431222915649414062,408
276,1455483688.10534548759460449219,480
277,1455483688.15498590469360351562,560
278,1455483688.20424485206604003906,608
279,1455483688.25323486328125,600
280,1455483688.30344724655151367188,544
281,1455483688.35418939590454101562,456
282,1455483688.40363073348999023438,392
283,1455483688.45408654212951660156,376
284,1455483688.50504302978515625,416
285,1455483688.55530071258544921875,488
286,1455483688.60367584228515625,568
287,1455483688.65453505516052246094,608
288,1455483688.70311760902404785156,600
289,1455483688.75334620475769042969,536
290,1455483688.80398106575012207031,448
291,1455483688.85353326797485351562,384
292,1455483688.90909147262573242188,376
293,1455483688.95595788955688476562,424
294,1455483689.00347089767456054688,496
295,1455483689.05436849594116210938,576
296,1455483689.10340642929077148438,608
297,1455483689.15351462364196777344,592
298,1455483689.20368480682373046875,520
299,1455483689.25628757476806640625,440
300,1455483689.30537772178649902344,384
301,1455483689.3547115325927734375,376
302,1455483689.40426349639892578125,424
303,1455483689.45436143875122070312,512
304,1455483689.50359272956848144531,584
305,1455483689.55630230903625488281,608
306,1455483689.60468459129333496094,584
307,1455483689.65437293052673339844,512
308,1455483689.70335793495178222656,432
309,1455483689.75489783287048339844,376
310,1455483689.80425715446472167969,384
311,1455483689.85504627227783203125,440
312,1455483689.90364003181457519531,520
313,1455483689.95569133758544921875,592
314,1455483690.0043773651123046875,496
315,1455483690.05413460731506347656,576
316,1455483690.10418963432312011719,608
317,1455483690.15371727943420410156,592
318,1455483690.20314526557922363281,528
319,1455483690.25397658348083496094,440
320,1455483690.30432891845703125,384
321,1455483690.35385775566101074219,376
322,1455483690.40525031089782714844,432
323,1455483690.45514202117919921875,512
324,1455483690.50479078292846679688,584
325,1455483690.55394649505615234375,608
326,1455483690.60355997085571289062,584
327,1455483690.65483832359313964844,512
328,1455483690.70345234870910644531,432
329,1455483690.75477695465087890625,376
330,1455483690.80333614349365234375,376
331,1455483690.85408902168273925781,432
332,1455483690.90344190597534179688,520
333,1455483690.95332288742065429688,584
334,1455483691.00720167160034179688,608
335,1455483691.05467724800109863281,576
336,1455483691.10502934455871582031,504
337,1455483691.15516209602355957031,424
338,1455483691.20391511917114257812,376
339,1455483691.25346231460571289062,384
340,1455483691.30438280105590820312,448
341,1455483691.35375523567199707031,528
342,1455483691.40589022636413574219,592
343,1455483691.45453500747680664062,608
344,1455483691.50374579429626464844,576
345,1455483691.55342173576354980469,496
346,1455483691.60379147529602050781,416
347,1455483691.65396165847778320312,376
348,1455483691.70375871658325195312,392
349,1455483691.75538992881774902344,456
350,1455483691.80406236648559570312,536
351,1455483691.85437774658203125,600
352,1455483691.90560555458068847656,608
353,1455483691.95354032516479492188,568
354,1455483692.00424885749816894531,488
355,1455483692.05512595176696777344,408
356,1455483692.10407876968383789062,376
357,1455483692.15555524826049804688,392
358,1455483692.20598077774047851562,464
359,1455483692.25616812705993652344,544
360,1455483692.30351400375366210938,600
361,1455483692.35419631004333496094,608
362,1455483692.40496420860290527344,552
363,1455483692.45434904098510742188,472
364,1455483692.50412249565124511719,400
365,1455483692.55395722389221191406,376
366,1455483692.60629010200500488281,400
367,1455483692.65318202972412109375,472
368,1455483692.70395064353942871094,552
369,1455483692.7540302276611328125,608
370,1455483692.80353832244873046875,608
371,1455483692.85350465774536132812,552
372,1455483692.90359354019165039062,464
373,1455483692.95583677291870117188,392
374,1455483693.00410604476928710938,376
375,1455483693.05313253402709960938,408
376,1455483693.10463380813598632812,480
377,1455483693.15461015701293945312,560
378,1455483693.2038135528564453125,608
379,1455483693.25459265708923339844,600
380,1455483693.3031253814697265625,544
381,1455483693.35434436798095703125,456
382,1455483693.40354514122009277344,392
383,1455483693.45356631278991699219,376
384,1455483693.50350189208984375,408
385,1455483693.5552272796630859375,488
386,1455483693.60393214225769042969,568
387,1455483693.65365815162658691406,608
388,1455483693.70317769050598144531,600
389,1455483693.75360345840454101562,536
390,1455483693.80429363250732421875,448
391,1455483693.85394573211669921875,384
392,1455483693.9035625457763671875,376
393,1455483693.95376253128051757812,416
394,1455483694.00364398956298828125,496
395,1455483694.05489516258239746094,576
396,1455483694.10409450531005859375,608
397,1455483694.15551495552062988281,592
398,1455483694.20436930656433105469,520
399,1455483694.25334787368774414062,440
400,1455483694.30423641204833984375,384
401,1455483694.35470700263977050781,376
402,1455483694.40369129180908203125,424
403,1455483694.45352935791015625,504
404,1455483694.50487995147705078125,584
405,1455483694.55448961257934570312,608
406,1455483694.60382914543151855469,584
407,1455483694.65422797203063964844,512
408,1455483694.70357632637023925781,432
409,1455483694.75422596931457519531,376
410,1455483694.80399417877197265625,384
411,1455483694.8538761138916015625,432
412,1455483694.90373253822326660156,520
413,1455483694.95361876487731933594,584
414,1455483695.00408482551574707031,608
415,1455483695.05423688888549804688,576
416,1455483695.10381770133972167969,504
417,1455483695.15354251861572265625,424
418,1455483695.20494294166564941406,376
419,1455483695.25414061546325683594,384
420,1455483695.30394697189331054688,440
421,1455483695.35486197471618652344,528
422,1455483695.40380263328552246094,592
423,1455483695.45372796058654785156,608
424,1455483695.50360846519470214844,576
425,1455483695.55556154251098632812,496
426,1455483695.60444235801696777344,416
427,1455483695.65397548675537109375,376
428,1455483695.70343637466430664062,384
429,1455483695.75446271896362304688,456
430,1455483695.80344414710998535156,536
431,1455483695.85427355766296386719,600
432,1455483695.90549874305725097656,608
433,1455483695.954738616943359375,560
434,1455483696.00372242927551269531,488
435,1455483696.05458831787109375,408
436,1455483696.10566663742065429688,376
437,1455483696.15505361557006835938,392
438,1455483696.20343089103698730469,464
439,1455483696.25464773178100585938,544
440,1455483696.30329132080078125,600
441,1455483696.35363340377807617188,608
442,1455483696.40456318855285644531,560
443,1455483696.45638275146484375,472
444,1455483696.50359988212585449219,400
445,1455483696.5543041229248046875,376
446,1455483696.60398840904235839844,400
447,1455483696.65358233451843261719,472
448,1455483696.70377302169799804688,552
449,1455483696.75426959991455078125,608
450,1455483696.80337882041931152344,608
451,1455483696.85402703285217285156,552
452,1455483696.90367841720581054688,464
453,1455483696.95522451400756835938,392
454,1455483697.00328922271728515625,376
455,1455483697.05556774139404296875,408
456,1455483697.10322642326354980469,480
457,1455483697.15409684181213378906,560
458,1455483697.20312833786010742188,608
459,1455483697.254039764404296875,600
460,1455483697.30384492874145507812,544
461,1455483697.35534596443176269531,456
462,1455483697.40318846702575683594,392
463,1455483697.45400929450988769531,376
464,1455483697.5038852691650390625,408
465,1455483697.55408024787902832031,488
466,1455483697.60378146171569824219,568
467,1455483697.65540266036987304688,608
468,1455483697.70371770858764648438,592
469,1455483697.75454759597778320312,528
470,1455483697.803375244140625,448
471,1455483697.85402441024780273438,384
472,1455483697.90415716171264648438,376
473,1455483697.95473194122314453125,424
474,1455483698.00448322296142578125,496
475,1455483698.05389642715454101562,576
476,1455483698.10352373123168945312,608
477,1455483698.15435433387756347656,592
478,1455483698.20479846000671386719,520
479,1455483698.25404477119445800781,440
480,1455483698.30401492118835449219,384
481,1455483698.35403847694396972656,376
482,1455483698.40444278717041015625,424
483,1455483698.45336818695068359375,504
484,1455483698.50452136993408203125,584
485,1455483698.55356717109680175781,608
486,1455483698.60393571853637695312,584
487,1455483698.65380883216857910156,512
488,1455483698.704559326171875,432
489,1455483698.754192352294921875,376
490,1455483698.80428981781005859375,384
491,1455483698.85556793212890625,440
492,1455483698.90555500984191894531,520
493,1455483698.9531764984130859375,584
494,1455483699.004207611083984375,496
495,1455483699.05308008193969726562,576
496,1455483699.10320305824279785156,608
497,1455483699.15453481674194335938,592
498,1455483699.2048130035400390625,520
499,1455483699.25392270088195800781,440
500,1455483699.30391860008239746094,384
501,1455483699.35435032844543457031,376
502,1455483699.40468478202819824219,424
503,1455483699.45597910881042480469,512
504,1455483699.50354290008544921875,584
