id, time (s), size (bits)
0,1455483674.631366729736328125,432
1,1455483674.68182492256164550781,520
2,1455483674.731723785400390625,584
3,1455483674.78105592727661132812,608
4,1455483674.83114790916442871094,576
5,1455483674.88126587867736816406,504
6,1455483674.93187284469604492188,424
7,1455483674.98127484321594238281,376
8,1455483675.031951904296875,384
9,1455483675.08118534088134765625,440
10,1455483675.1312999725341796875,528
11,1455483675.18112039566040039062,592
12,1455483675.23117017745971679688,608
13,1455483675.2812938690185546875,576
14,1455483675.3310871124267578125,496
15,1455483675.38190793991088867188,416
16,1455483675.43175768852233886719,376
17,1455483675.48196458816528320312,392
18,1455483675.53182268142700195312,456
19,1455483675.58141493797302246094,536
20,1455483675.63215970993041992188,600
21,1455483675.68188261985778808594,608
22,1455483675.73161435127258300781,568
23,1455483675.78131341934204101562,488
24,1455483675.83106923103332519531,408
25,1455483675.88159513473510742188,376
26,1455483675.93103361129760742188,392
27,1455483675.98139691352844238281,464
28,1455483676.03330254554748535156,544
29,1455483676.08182621002197265625,600
30,1455483676.13084006309509277344,608
31,1455483676.18159437179565429688,560
32,1455483676.23207116127014160156,472
33,1455483676.28106427192687988281,400
34,1455483676.33193850517272949219,376
35,1455483676.381511688232421875,400
36,1455483676.43139505386352539062,472
37,1455483676.4818935394287109375,552
38,1455483676.53133130073547363281,608
39,1455483676.58177495002746582031,600
40,1455483676.63134646415710449219,552
41,1455483676.68207716941833496094,464
42,1455483676.73144102096557617188,400
43,1455483676.78110027313232421875,376
44,1455483676.83111643791198730469,408
45,1455483676.88158750534057617188,480
46,1455483676.93180942535400390625,560
47,1455483676.98184370994567871094,608
48,1455483677.03151011466979980469,600
49,1455483677.08177113533020019531,544
50,1455483677.13113546371459960938,456
51,1455483677.18204760551452636719,392
52,1455483677.23175692558288574219,376
53,1455483677.28126311302185058594,408
54,1455483677.33187794685363769531,488
55,1455483677.3818264007568359375,568
56,1455483677.43164587020874023438,608
57,1455483677.48140454292297363281,600
58,1455483677.53135991096496582031,536
59,1455483677.58118557929992675781,448
60,1455483677.63170313835144042969,384
61,1455483677.68137860298156738281,376
62,1455483677.73349928855895996094,424
63,1455483677.78185129165649414062,496
64,1455483677.83184576034545898438,576
65,1455483677.88186526298522949219,608
66,1455483677.93164372444152832031,592
67,1455483677.98150920867919921875,520
68,1455483678.0318889617919921875,440
69,1455483678.08207988739013671875,384
70,1455483678.13120365142822265625,376
71,1455483678.18143582344055175781,424
72,1455483678.23085641860961914062,504
73,1455483678.28118538856506347656,584
74,1455483678.33157706260681152344,608
75,1455483678.38183903694152832031,584
76,1455483678.43163204193115234375,512
77,1455483678.48132014274597167969,432
78,1455483678.5311603546142578125,376
79,1455483678.58221077919006347656,384
80,1455483678.63164615631103515625,432
81,1455483678.6815280914306640625,520
82,1455483678.73096036911010742188,584
83,1455483678.78152823448181152344,608
84,1455483678.83104681968688964844,576
85,1455483678.8814563751220703125,504
86,1455483678.93153500556945800781,424
87,1455483678.98097014427185058594,376
88,1455483679.03087735176086425781,384
89,1455483679.08120012283325195312,440
90,1455483679.13094353675842285156,528
91,1455483679.18154025077819824219,592
92,1455483679.23126673698425292969,608
93,1455483679.28110337257385253906,576
94,1455483679.33184313774108886719,496
95,1455483679.38161492347717285156,416
96,1455483679.43090939521789550781,376
97,1455483679.48136281967163085938,384
98,1455483679.53086018562316894531,448
99,1455483679.58121466636657714844,536
100,1455483679.63193821907043457031,600
101,1455483679.68192386627197265625,608
102,1455483679.73192858695983886719,568
103,1455483679.78157973289489746094,488
104,1455483679.83231782913208007812,408
105,1455483679.88090658187866210938,376
106,1455483679.93189334869384765625,392
107,1455483679.98181033134460449219,464
108,1455483680.03159856796264648438,544
109,1455483680.08141613006591796875,600
110,1455483680.13126349449157714844,608
111,1455483680.18209338188171386719,560
112,1455483680.23146581649780273438,480
113,1455483680.28212666511535644531,400
114,1455483680.33115792274475097656,376
115,1455483680.38111162185668945312,400
116,1455483680.43084740638732910156,472
117,1455483680.48084497451782226562,552
118,1455483680.53261446952819824219,608
119,1455483680.58196377754211425781,600
120,1455483680.63167905807495117188,552
121,1455483680.68165659904479980469,464
122,1455483680.73120450973510742188,400
123,1455483680.78114438056945800781,376
124,1455483680.83148503303527832031,408
125,1455483680.88212919235229492188,480
126,1455483680.93151807785034179688,560
127,1455483680.98088312149047851562,608
128,1455483681.03164935111999511719,544
129,1455483681.08109307289123535156,600
130,1455483681.1319484710693359375,608
131,1455483681.18122649192810058594,560
132,1455483681.23125553131103515625,480
133,1455483681.28103017807006835938,400
134,1455483681.33206486701965332031,376
135,1455483681.38165640830993652344,400
136,1455483681.43109178543090820312,472
137,1455483681.482105255126953125,552
138,1455483681.53178691864013671875,608
139,1455483681.58274912834167480469,600
140,1455483681.63121390342712402344,552
141,1455483681.68138861656188964844,464
142,1455483681.73171949386596679688,400
143,1455483681.78152728080749511719,376
144,1455483681.83230710029602050781,408
145,1455483681.88144540786743164062,480
146,1455483681.9323673248291015625,560
147,1455483681.9815273284912109375,608
148,1455483682.03158235549926757812,600
149,1455483682.08149600028991699219,544
150,1455483682.13181567192077636719,456
151,1455483682.18096470832824707031,392
152,1455483682.23121476173400878906,376
153,1455483682.28088903427124023438,408
154,1455483682.33144927024841308594,488
155,1455483682.38170194625854492188,568
156,1455483682.43130922317504882812,608
157,1455483682.48179101943969726562,592
158,1455483682.53177595138549804688,528
159,1455483682.58106970787048339844,448
160,1455483682.63124012947082519531,384
161,1455483682.6817111968994140625,376
162,1455483682.73129415512084960938,416
163,1455483682.78122687339782714844,496
164,1455483682.831851959228515625,576
165,1455483682.88088703155517578125,608
166,1455483682.93175101280212402344,592
167,1455483682.98176932334899902344,520
168,1455483683.03174448013305664062,440
169,1455483683.0815486907958984375,384
170,1455483683.13187384605407714844,376
171,1455483683.18104124069213867188,424
172,1455483683.23107242584228515625,504
173,1455483683.28183317184448242188,584
174,1455483683.3326778411865234375,608
175,1455483683.38142323493957519531,584
176,1455483683.431423187255859375,512
177,1455483683.48153209686279296875,432
178,1455483683.53127932548522949219,376
179,1455483683.58101487159729003906,376
180,1455483683.63117933273315429688,432
181,1455483683.68348002433776855469,520
182,1455483683.73130655288696289062,584
183,1455483683.78163123130798339844,608
184,1455483683.83158349990844726562,576
185,1455483683.88150763511657714844,504
186,1455483683.93116545677185058594,424
187,1455483683.98122501373291015625,376
188,1455483684.03279709815979003906,384
189,1455483684.08131170272827148438,440
190,1455483684.13107562065124511719,528
191,1455483684.18209123611450195312,592
192,1455483684.23183941841125488281,608
193,1455483684.28091311454772949219,576
194,1455483684.33150553703308105469,496
195,1455483684.38196563720703125,416
196,1455483684.43145799636840820312,376
197,1455483684.48189783096313476562,392
198,1455483684.53145456314086914062,448
199,1455483684.58198022842407226562,536
200,1455483684.63189554214477539062,600
201,1455483684.68187308311462402344,608
202,1455483684.73159050941467285156,568
203,1455483684.78142333030700683594,488
204,1455483684.83109760284423828125,408
205,1455483684.88179707527160644531,376
206,1455483684.93168711662292480469,392
207,1455483684.98083662986755371094,456
208,1455483685.03116703033447265625,544
209,1455483685.08333921432495117188,600
210,1455483685.13174223899841308594,608
211,1455483685.1814098358154296875,560
212,1455483685.23113799095153808594,480
213,1455483685.28156900405883789062,400
214,1455483685.33130788803100585938,376
215,1455483685.38246464729309082031,400
216,1455483685.43118357658386230469,472
217,1455483685.48178410530090332031,552
218,1455483685.53113269805908203125,608
219,1455483685.5809783935546875,608
220,1455483685.63180327415466308594,552
221,1455483685.68312716484069824219,464
222,1455483685.731594085693359375,400
223,1455483685.78152704238891601562,376
224,1455483685.83172893524169921875,408
225,1455483685.88125848770141601562,480
226,1455483685.93169903755187988281,560
227,1455483685.98138332366943359375,608
228,1455483686.03183794021606445312,600
229,1455483686.08148622512817382812,544
230,1455483686.13316369056701660156,456
231,1455483686.18200898170471191406,392
232,1455483686.230915069580078125,376
233,1455483686.2815189361572265625,408
234,1455483686.33148336410522460938,488
235,1455483686.38153624534606933594,568
236,1455483686.43131661415100097656,608
237,1455483686.48082208633422851562,600
238,1455483686.53184056282043457031,528
239,1455483686.58208918571472167969,448
240,1455483686.63134074211120605469,384
241,1455483686.68167400360107421875,376
242,1455483686.73088788986206054688,416
243,1455483686.78141260147094726562,496
244,1455483686.83194184303283691406,576
245,1455483686.88172245025634765625,608
246,1455483686.931316375732421875,592
247,1455483686.98200869560241699219,520
248,1455483687.03100085258483886719,440
249,1455483687.08152437210083007812,384
250,1455483687.13108897209167480469,376
251,1455483687.18147802352905273438,424
252,1455483687.23083758354187011719,504
253,1455483687.28095722198486328125,584
254,1455483687.33132672309875488281,608
255,1455483687.3822383880615234375,584
256,1455483687.43159985542297363281,512
257,1455483687.48142266273498535156,432
258,1455483687.53125691413879394531,376
259,1455483687.58188676834106445312,384
260,1455483687.63120412826538085938,432
261,1455483687.68104124069213867188,520
262,1455483687.73140835762023925781,584
263,1455483687.78135538101196289062,608
264,1455483687.83186841011047363281,576
265,1455483687.88137793540954589844,504
266,1455483687.93106794357299804688,424
267,1455483687.98093771934509277344,376
268,1455483688.03128647804260253906,384
269,1455483688.08122992515563964844,440
270,1455483688.13138508796691894531,528
271,1455483688.18126535415649414062,592
272,1455483688.23181748390197753906,608
273,1455483688.28141856193542480469,576
274,1455483688.33199572563171386719,496
275,1455483688.38163113594055175781,416
276,1455483688.43129444122314453125,376
277,1455483688.48207235336303710938,392
278,1455483688.53177022933959960938,456
279,1455483688.58212757110595703125,536
280,1455483688.63129925727844238281,600
281,1455483688.68200182914733886719,608
282,1455483688.73136067390441894531,568
283,1455483688.78167486190795898438,488
284,1455483688.83089542388916015625,408
285,1455483688.8813915252685546875,376
286,1455483688.93193387985229492188,392
287,1455483688.98199295997619628906,464
288,1455483689.03096914291381835938,544
289,1455483689.081493377685546875,600
290,1455483689.13126039505004882812,608
291,1455483689.18083858489990234375,560
292,1455483689.23175334930419921875,472
293,1455483689.2813873291015625,400
294,1455483689.33084583282470703125,376
295,1455483689.38142800331115722656,400
296,1455483689.4308376312255859375,472
297,1455483689.48162388801574707031,552
298,1455483689.5318145751953125,608
299,1455483689.58101344108581542969,608
300,1455483689.63094043731689453125,552
301,1455483689.68518614768981933594,464
302,1455483689.73114156723022460938,400
303,1455483689.78228354454040527344,376
304,1455483689.83171176910400390625,408
305,1455483689.881168365478515625,480
306,1455483689.93136906623840332031,560
307,1455483689.98231482505798339844,608
308,1455483690.03146886825561523438,544
309,1455483690.08181214332580566406,600
310,1455483690.13130998611450195312,608
311,1455483690.18228197097778320312,560
312,1455483690.23185229301452636719,472
313,1455483690.28127312660217285156,400
314,1455483690.33206534385681152344,376
315,1455483690.38195037841796875,400
316,1455483690.43169045448303222656,472
317,1455483690.48179268836975097656,552
318,1455483690.53156566619873046875,608
319,1455483690.58201384544372558594,600
320,1455483690.6310138702392578125,552
321,1455483690.68183732032775878906,464
322,1455483690.731227874755859375,400
323,1455483690.78169727325439453125,376
324,1455483690.83094620704650878906,408
325,1455483690.88163018226623535156,480
326,1455483690.93149900436401367188,560
327,1455483690.98224353790283203125,608
328,1455483691.03289461135864257812,600
329,1455483691.08172059059143066406,544
330,1455483691.13113498687744140625,456
331,1455483691.18137383460998535156,392
332,1455483691.23094248771667480469,376
333,1455483691.28108954429626464844,408
334,1455483691.33116006851196289062,488
335,1455483691.38222432136535644531,568
336,1455483691.43143939971923828125,608
337,1455483691.48197126388549804688,592
338,1455483691.53167772293090820312,528
339,1455483691.58149743080139160156,448
340,1455483691.63157248497009277344,384
341,1455483691.68157124519348144531,376
342,1455483691.73245763778686523438,424
343,1455483691.78086018562316894531,496
344,1455483691.83184528350830078125,576
345,1455483691.88181352615356445312,608
346,1455483691.93135046958923339844,592
347,1455483691.98214650154113769531,520
348,1455483692.03348278999328613281,440
349,1455483692.08096170425415039062,384
350,1455483692.13103008270263671875,376
351,1455483692.1816558837890625,424
352,1455483692.23172116279602050781,504
353,1455483692.28122949600219726562,584
354,1455483692.33167743682861328125,608
355,1455483692.38145184516906738281,584
356,1455483692.43206310272216796875,512
357,1455483692.48157715797424316406,432
358,1455483692.53086137771606445312,376
359,1455483692.58206653594970703125,384
360,1455483692.6318569183349609375,432
361,1455483692.68157172203063964844,520
362,1455483692.73152232170104980469,584
363,1455483692.78088784217834472656,608
364,1455483692.83212208747863769531,576
365,1455483692.88196825981140136719,504
366,1455483692.93190670013427734375,424
367,1455483692.9817028045654296875,376
368,1455483693.03145909309387207031,384
369,1455483693.08092355728149414062,440
370,1455483693.13196158409118652344,528
371,1455483693.18171262741088867188,592
372,1455483693.23121047019958496094,608
373,1455483693.28162550926208496094,576
374,1455483693.33171010017395019531,496
375,1455483693.38126850128173828125,416
376,1455483693.43130946159362792969,376
377,1455483693.48227858543395996094,392
378,1455483693.53151059150695800781,448
379,1455483693.58172464370727539062,536
380,1455483693.63179349899291992188,600
381,1455483693.68161368370056152344,608
382,1455483693.7317962646484375,568
383,1455483693.78149366378784179688,488
384,1455483693.83136391639709472656,408
385,1455483693.8816661834716796875,376
386,1455483693.93102788925170898438,392
387,1455483693.98196721076965332031,464
388,1455483694.0319385528564453125,544
389,1455483694.08203983306884765625,600
390,1455483694.13138985633850097656,608
391,1455483694.18209075927734375,560
392,1455483694.23162293434143066406,480
393,1455483694.28110790252685546875,400
394,1455483694.3315486907958984375,376
395,1455483694.38106775283813476562,400
396,1455483694.43157958984375,472
397,1455483694.48185396194458007812,552
398,1455483694.53237867355346679688,608
399,1455483694.5829334259033203125,600
400,1455483694.63089776039123535156,552
401,1455483694.68176770210266113281,464
402,1455483694.73138189315795898438,400
403,1455483694.78110575675964355469,376
404,1455483694.83145260810852050781,408
405,1455483694.88122057914733886719,480
406,1455483694.93177318572998046875,560
407,1455483694.98220658302307128906,608
408,1455483695.03090667724609375,600
409,1455483695.08141493797302246094,544
410,1455483695.13159394264221191406,456
411,1455483695.18105053901672363281,392
412,1455483695.23092317581176757812,376
413,1455483695.28126287460327148438,408
414,1455483695.33089947700500488281,488
415,1455483695.38228344917297363281,568
416,1455483695.43083715438842773438,608
417,1455483695.48146677017211914062,592
418,1455483695.53184390068054199219,528
419,1455483695.5814037322998046875,448
420,1455483695.63174748420715332031,384
421,1455483695.68157529830932617188,376
422,1455483695.73172831535339355469,416
423,1455483695.78138566017150878906,496
424,1455483695.83199310302734375,576
425,1455483695.88146853446960449219,608
426,1455483695.93121290206909179688,592
427,1455483695.9819183349609375,520
428,1455483696.03111386299133300781,440
429,1455483696.08130502700805664062,384
430,1455483696.13172197341918945312,376
431,1455483696.18135404586791992188,424
432,1455483696.23089313507080078125,504
433,1455483696.28139209747314453125,584
434,1455483696.33174538612365722656,608
435,1455483696.38169550895690917969,584
436,1455483696.4318065643310546875,512
437,1455483696.48164057731628417969,432
438,1455483696.5314483642578125,376
439,1455483696.58161211013793945312,384
440,1455483696.63236284255981445312,432
441,1455483696.6809482574462890625,512
442,1455483696.73162102699279785156,584
443,1455483696.78084802627563476562,608
444,1455483696.831340789794921875,576
445,1455483696.88165068626403808594,504
446,1455483696.93113422393798828125,424
447,1455483696.9809398651123046875,376
448,1455483697.03109979629516601562,384
449,1455483697.08173155784606933594,440
450,1455483697.13116574287414550781,528
451,1455483697.18094301223754882812,592
452,1455483697.23183751106262207031,608
453,1455483697.28124332427978515625,576
454,1455483697.332462310791015625,496
455,1455483697.3816585540771484375,416
456,1455483697.43097901344299316406,376
457,1455483697.48161530494689941406,392
458,1455483697.53143334388732910156,448
459,1455483697.58110857009887695312,536
460,1455483697.63146209716796875,600
461,1455483697.68216347694396972656,608
462,1455483697.73171734809875488281,568
463,1455483697.78123331069946289062,488
464,1455483697.83292436599731445312,408
465,1455483697.88152170181274414062,376
466,1455483697.93160009384155273438,392
467,1455483697.98159837722778320312,464
468,1455483698.03128743171691894531,544
469,1455483698.08181643486022949219,600
470,1455483698.13155126571655273438,608
471,1455483698.18159699440002441406,560
472,1455483698.23182463645935058594,472
473,1455483698.2818546295166015625,400
474,1455483698.33158922195434570312,376
475,1455483698.38217759132385253906,400
476,1455483698.43147897720336914062,472
477,1455483698.48191308975219726562,552
478,1455483698.53167128562927246094,608
479,1455483698.58164000511169433594,600
480,1455483698.63146233558654785156,552
481,1455483698.68125963211059570312,464
482,1455483698.73235344886779785156,392
483,1455483698.78114438056945800781,376
484,1455483698.831768035888671875,408
485,1455483698.88210749626159667969,480
486,1455483698.93084859848022460938,560
487,1455483698.98120474815368652344,608
488,1455483699.03114724159240722656,544
489,1455483699.08132672309875488281,600
490,1455483699.13168764114379882812,608
491,1455483699.18124532699584960938,560
492,1455483699.23277568817138671875,472
493,1455483699.28104734420776367188,400
494,1455483699.33144116401672363281,376
495,1455483699.38119077682495117188,400
496,1455483699.43173336982727050781,472
497,1455483699.48178339004516601562,552
498,1455483699.53116083145141601562,608
499,1455483699.58350038528442382812,600
500,1455483699.63164186477661132812,552
501,1455483699.68175578117370605469,464
502,1455483699.73189949989318847656,400
503,1455483699.78180360794067382812,376
504,1455483699.83185935020446777344,408
