id, time (s), size (bits)
0,1455483674.65155124664306640625,464
1,1455483674.7214717864990234375,576
2,1455483674.79114413261413574219,608
3,1455483674.86163234710693359375,536
4,1455483674.93243527412414550781,424
5,1455483675.00235080718994140625,376
6,1455483675.07169055938720703125,432
7,1455483675.14174938201904296875,544
8,1455483675.21220898628234863281,608
9,1455483675.28191351890563964844,568
10,1455483675.35159277915954589844,464
11,1455483675.42477393150329589844,376
12,1455483675.49189114570617675781,400
13,1455483675.5618915557861328125,504
14,1455483675.632785797119140625,600
15,1455483675.70165562629699707031,600
16,1455483675.77213907241821289062,504
17,1455483675.84491229057312011719,392
18,1455483675.91303610801696777344,376
19,1455483675.98220181465148925781,464
20,1455483676.05357909202575683594,576
21,1455483676.12210416793823242188,608
22,1455483676.19223070144653320312,544
23,1455483676.2623844146728515625,424
24,1455483676.3327846527099609375,376
25,1455483676.40164256095886230469,424
26,1455483676.47176313400268554688,536
27,1455483676.54185080528259277344,608
28,1455483676.61256575584411621094,576
29,1455483676.68357706069946289062,464
30,1455483676.75240254402160644531,376
31,1455483676.82231378555297851562,392
32,1455483676.892185211181640625,496
33,1455483676.96165680885314941406,592
34,1455483677.03223919868469238281,600
35,1455483677.10425114631652832031,504
36,1455483677.17379307746887207031,400
37,1455483677.24130034446716308594,376
38,1455483677.31198430061340332031,456
39,1455483677.38262867927551269531,568
40,1455483677.45319032669067382812,608
41,1455483677.52449440956115722656,544
42,1455483677.59359431266784667969,432
43,1455483677.66148710250854492188,376
44,1455483677.73429012298583984375,424
45,1455483677.80205106735229492188,536
46,1455483677.87191724777221679688,608
47,1455483677.94271636009216308594,576
48,1455483678.01265120506286621094,472
49,1455483678.08279776573181152344,384
50,1455483678.15224123001098632812,392
51,1455483678.22193956375122070312,488
52,1455483678.29258441925048828125,592
53,1455483678.36304473876953125,600
54,1455483678.43235516548156738281,512
55,1455483678.50244760513305664062,408
56,1455483678.57276463508605957031,376
57,1455483678.64161753654479980469,448
58,1455483678.71232819557189941406,568
59,1455483678.78312206268310546875,608
60,1455483678.85264348983764648438,552
61,1455483678.92169022560119628906,440
62,1455483678.99238181114196777344,376
63,1455483679.06240797042846679688,416
64,1455483679.13359713554382324219,528
65,1455483679.20242762565612792969,608
66,1455483679.27227258682250976562,584
67,1455483679.34142756462097167969,480
68,1455483679.41265892982482910156,384
69,1455483679.48333215713500976562,392
70,1455483679.5523281097412109375,488
71,1455483679.62296986579895019531,592
72,1455483679.69201827049255371094,608
73,1455483679.76163005828857421875,520
74,1455483679.83304762840270996094,408
75,1455483679.90228271484375,376
76,1455483679.9735584259033203125,448
77,1455483680.04238605499267578125,560
78,1455483680.11142754554748535156,608
79,1455483680.18280506134033203125,552
80,1455483680.25244474411010742188,440
81,1455483680.32218766212463378906,376
82,1455483680.39241886138916015625,408
83,1455483680.46301198005676269531,520
84,1455483680.533344268798828125,608
85,1455483680.60136628150939941406,584
86,1455483680.67249083518981933594,480
87,1455483680.74155569076538085938,384
88,1455483680.811443328857421875,384
89,1455483680.88352799415588378906,480
90,1455483680.95206212997436523438,584
91,1455483681.0224475860595703125,528
92,1455483681.09294652938842773438,608
93,1455483681.16226696968078613281,584
94,1455483681.2320709228515625,472
95,1455483681.30316638946533203125,384
96,1455483681.3715381622314453125,392
97,1455483681.44200825691223144531,488
98,1455483681.51282763481140136719,592
99,1455483681.58359169960021972656,600
100,1455483681.65172791481018066406,520
101,1455483681.72281765937805175781,408
102,1455483681.79223608970642089844,376
103,1455483681.86172795295715332031,448
104,1455483681.93332839012145996094,560
105,1455483682.00239205360412597656,608
106,1455483682.0713405609130859375,560
107,1455483682.14317178726196289062,440
108,1455483682.21240091323852539062,376
109,1455483682.28337311744689941406,416
110,1455483682.35243582725524902344,520
111,1455483682.421558380126953125,608
112,1455483682.49206066131591796875,584
113,1455483682.563129425048828125,480
114,1455483682.631954193115234375,384
115,1455483682.70137166976928710938,384
116,1455483682.77315497398376464844,488
117,1455483682.84192419052124023438,584
118,1455483682.91222929954528808594,608
119,1455483682.98308563232421875,520
120,1455483683.05140829086303710938,416
121,1455483683.12186145782470703125,376
122,1455483683.19295620918273925781,440
123,1455483683.26164960861206054688,552
124,1455483683.33349967002868652344,608
125,1455483683.40241456031799316406,560
126,1455483683.47246694564819335938,448
127,1455483683.54233694076538085938,376
128,1455483683.61389780044555664062,408
129,1455483683.684223175048828125,520
130,1455483683.75373148918151855469,608
131,1455483683.82359576225280761719,584
132,1455483683.89226245880126953125,488
133,1455483683.96151471138000488281,392
134,1455483684.03354716300964355469,384
135,1455483684.10341882705688476562,480
136,1455483684.17184615135192871094,584
137,1455483684.24320673942565917969,608
138,1455483684.31159734725952148438,528
139,1455483684.38274836540222167969,416
140,1455483684.4529056549072265625,376
141,1455483684.52170562744140625,440
142,1455483684.59222245216369628906,552
143,1455483684.66302561759948730469,608
144,1455483684.73253345489501953125,560
145,1455483684.8024272918701171875,448
146,1455483684.87238860130310058594,376
147,1455483684.9423084259033203125,408
148,1455483685.01209473609924316406,512
149,1455483685.08486580848693847656,600
150,1455483685.15149474143981933594,592
151,1455483685.22233033180236816406,488
152,1455483685.2920989990234375,392
153,1455483685.36189436912536621094,384
154,1455483685.431926727294921875,472
155,1455483685.502147674560546875,576
156,1455483685.57292246818542480469,608
157,1455483685.64162945747375488281,536
158,1455483685.71254110336303710938,416
159,1455483685.78224897384643554688,376
160,1455483685.85156726837158203125,432
161,1455483685.92285609245300292969,544
162,1455483685.99210071563720703125,608
163,1455483686.06158900260925292969,568
164,1455483686.13390254974365234375,456
165,1455483686.20254945755004882812,376
166,1455483686.27275967597961425781,400
167,1455483686.34275102615356445312,504
168,1455483686.41142559051513671875,600
169,1455483686.48367166519165039062,592
170,1455483686.55190205574035644531,496
171,1455483686.62141919136047363281,392
172,1455483686.69305419921875,384
173,1455483686.76264548301696777344,464
174,1455483686.83266592025756835938,576
175,1455483686.90163588523864746094,608
176,1455483686.9739589691162109375,536
177,1455483687.04256463050842285156,424
178,1455483687.11213564872741699219,376
179,1455483687.1829280853271484375,432
180,1455483687.25284433364868164062,544
181,1455483687.32234859466552734375,608
182,1455483687.39194393157958984375,576
183,1455483687.46145391464233398438,464
184,1455483687.53199172019958496094,376
185,1455483687.60267877578735351562,400
186,1455483687.67214155197143554688,504
187,1455483687.74214458465576171875,600
188,1455483687.81281566619873046875,600
189,1455483687.88219046592712402344,504
190,1455483687.95138120651245117188,400
191,1455483688.02337431907653808594,376
192,1455483688.0914249420166015625,456
193,1455483688.16130113601684570312,568
194,1455483688.23256444931030273438,608
195,1455483688.302326202392578125,544
196,1455483688.37264132499694824219,432
197,1455483688.44418072700500488281,376
198,1455483688.51191449165344238281,424
199,1455483688.5828495025634765625,536
200,1455483688.65232586860656738281,608
201,1455483688.72232389450073242188,576
202,1455483688.7913913726806640625,472
203,1455483688.86265110969543457031,384
204,1455483688.93264365196228027344,392
205,1455483689.00132989883422851562,496
206,1455483689.07249283790588378906,592
207,1455483689.14234399795532226562,600
208,1455483689.2117633819580078125,512
209,1455483689.28296709060668945312,400
210,1455483689.35248231887817382812,376
211,1455483689.42201495170593261719,456
212,1455483689.49295377731323242188,568
213,1455483689.56222963333129882812,608
214,1455483689.63370108604431152344,544
215,1455483689.70257210731506347656,432
216,1455483689.77195429801940917969,376
217,1455483689.8413944244384765625,416
218,1455483689.91220998764038085938,528
219,1455483689.98317050933837890625,608
220,1455483690.05204653739929199219,576
221,1455483690.12245845794677734375,608
222,1455483690.19202446937561035156,544
223,1455483690.26148653030395507812,432
224,1455483690.33279871940612792969,376
225,1455483690.4021129608154296875,424
226,1455483690.47170114517211914062,536
227,1455483690.54203581809997558594,608
228,1455483690.61211681365966796875,576
229,1455483690.68257665634155273438,464
230,1455483690.75237989425659179688,376
231,1455483690.82240962982177734375,392
232,1455483690.89224076271057128906,496
233,1455483690.96316218376159667969,600
234,1455483691.03377294540405273438,600
235,1455483691.10244822502136230469,504
236,1455483691.1732730865478515625,400
237,1455483691.2413730621337890625,376
238,1455483691.31134271621704101562,456
239,1455483691.38342928886413574219,568
240,1455483691.45207619667053222656,608
241,1455483691.52185273170471191406,544
242,1455483691.59173488616943359375,432
243,1455483691.66158056259155273438,376
244,1455483691.7332019805908203125,424
245,1455483691.8045711517333984375,536
246,1455483691.87205147743225097656,608
247,1455483691.94231271743774414062,576
248,1455483692.01351380348205566406,472
249,1455483692.08370947837829589844,384
250,1455483692.15180921554565429688,392
251,1455483692.22276020050048828125,496
252,1455483692.29265499114990234375,592
253,1455483692.36172890663146972656,600
254,1455483692.43476200103759765625,512
255,1455483692.50403428077697753906,400
256,1455483692.57177281379699707031,376
257,1455483692.64299774169921875,456
258,1455483692.71144199371337890625,560
259,1455483692.78332757949829101562,608
260,1455483692.85240435600280761719,552
261,1455483692.92194056510925292969,440
262,1455483692.99140119552612304688,376
263,1455483693.06233572959899902344,416
264,1455483693.13275361061096191406,528
265,1455483693.20162916183471679688,608
266,1455483693.27336835861206054688,584
267,1455483693.34149861335754394531,480
268,1455483693.41237163543701171875,384
269,1455483693.48367023468017578125,392
270,1455483693.55207705497741699219,488
271,1455483693.62186288833618164062,592
272,1455483693.69224715232849121094,608
273,1455483693.76256537437438964844,520
274,1455483693.83212566375732421875,408
275,1455483693.90315937995910644531,376
276,1455483693.97296547889709472656,448
277,1455483694.04180932044982910156,560
278,1455483694.11146688461303710938,608
279,1455483694.18302130699157714844,552
280,1455483694.25219798088073730469,440
281,1455483694.32242918014526367188,376
282,1455483694.39236116409301757812,408
283,1455483694.46184873580932617188,520
284,1455483694.53332281112670898438,608
285,1455483694.60153126716613769531,584
286,1455483694.6715602874755859375,480
287,1455483694.74324584007263183594,384
288,1455483694.81158328056335449219,384
289,1455483694.88193798065185546875,480
290,1455483694.95195508003234863281,584
291,1455483695.02216649055480957031,608
292,1455483695.09229922294616699219,520
293,1455483695.1630687713623046875,408
294,1455483695.23351550102233886719,376
295,1455483695.30223536491394042969,440
296,1455483695.37277698516845703125,552
297,1455483695.4415493011474609375,608
298,1455483695.51212787628173828125,560
299,1455483695.58280849456787109375,448
300,1455483695.65263986587524414062,376
301,1455483695.72257852554321289062,408
302,1455483695.79205322265625,512
303,1455483695.86155962944030761719,600
304,1455483695.93194627761840820312,592
305,1455483696.00225019454956054688,488
306,1455483696.07234597206115722656,392
307,1455483696.141231536865234375,384
308,1455483696.21292662620544433594,480
309,1455483696.282135009765625,584
310,1455483696.35192728042602539062,608
311,1455483696.42401075363159179688,528
312,1455483696.49137663841247558594,416
313,1455483696.56162285804748535156,376
314,1455483696.63310980796813964844,440
315,1455483696.70194721221923828125,552
316,1455483696.77278995513916015625,608
317,1455483696.84260010719299316406,568
318,1455483696.9114589691162109375,456
319,1455483696.98381090164184570312,376
320,1455483697.05253529548645019531,400
321,1455483697.12217855453491210938,512
322,1455483697.192348480224609375,600
323,1455483697.26256299018859863281,592
324,1455483697.33319640159606933594,496
325,1455483697.40231394767761230469,392
326,1455483697.47262287139892578125,384
327,1455483697.54244184494018554688,472
328,1455483697.61156964302062988281,576
329,1455483697.68364071846008300781,608
330,1455483697.75226092338562011719,536
331,1455483697.82159852981567382812,424
332,1455483697.89268398284912109375,376
333,1455483697.96172618865966796875,432
334,1455483698.03202390670776367188,544
335,1455483698.1027202606201171875,608
336,1455483698.1714649200439453125,568
337,1455483698.24193310737609863281,456
338,1455483698.31260037422180175781,376
339,1455483698.38293194770812988281,400
340,1455483698.45218062400817871094,504
341,1455483698.52278685569763183594,600
342,1455483698.59152913093566894531,600
343,1455483698.66261076927185058594,496
344,1455483698.73322224617004394531,392
345,1455483698.80177211761474609375,376
346,1455483698.87291193008422851562,464
347,1455483698.9425506591796875,576
348,1455483699.01243925094604492188,512
349,1455483699.08208346366882324219,600
350,1455483699.1521549224853515625,592
351,1455483699.22179317474365234375,496
352,1455483699.29233717918395996094,392
353,1455483699.36305570602416992188,384
354,1455483699.43290567398071289062,472
355,1455483699.50222420692443847656,576
356,1455483699.57320690155029296875,608
357,1455483699.64205265045166015625,536
358,1455483699.71206331253051757812,424
359,1455483699.78316402435302734375,376
360,1455483699.85137200355529785156,432
361,1455483699.92241764068603515625,544
362,1455483699.99146556854248046875,608
363,1455483700.06212687492370605469,568
364,1455483700.13321638107299804688,456
365,1455483700.20222687721252441406,376
366,1455483700.27146506309509277344,400
367,1455483700.34255337715148925781,504
368,1455483700.41239833831787109375,600
369,1455483700.48263239860534667969,592
370,1455483700.55228185653686523438,496
371,1455483700.62317824363708496094,392
372,1455483700.69439578056335449219,384
373,1455483700.76207900047302246094,464
374,1455483700.83279538154602050781,576
375,1455483700.90152144432067871094,608
376,1455483700.97161746025085449219,536
377,1455483701.04294085502624511719,424
378,1455483701.11183047294616699219,376
379,1455483701.18370175361633300781,432
380,1455483701.253009796142578125,544
381,1455483701.32223749160766601562,608
382,1455483701.39141559600830078125,576
383,1455483701.46296286582946777344,464
384,1455483701.53224015235900878906,376
385,1455483701.60180544853210449219,400
386,1455483701.67179465293884277344,504
387,1455483701.7416095733642578125,600
388,1455483701.81290221214294433594,600
389,1455483701.88358974456787109375,504
390,1455483701.95146274566650390625,400
391,1455483702.02247214317321777344,376
392,1455483702.09202218055725097656,456
393,1455483702.16372537612915039062,576
394,1455483702.23240375518798828125,608
395,1455483702.3030643463134765625,544
396,1455483702.37257719039916992188,432
397,1455483702.44369482994079589844,376
398,1455483702.5114154815673828125,424
399,1455483702.58357501029968261719,536
400,1455483702.65222620964050292969,608
401,1455483702.72281980514526367188,576
402,1455483702.79214358329772949219,464
403,1455483702.86215758323669433594,384
404,1455483702.93423557281494140625,392
405,1455483703.00239396095275878906,496
406,1455483703.07380652427673339844,592
407,1455483703.14243984222412109375,600
408,1455483703.21161103248596191406,512
409,1455483703.28286790847778320312,400
410,1455483703.3522396087646484375,376
411,1455483703.42167544364929199219,456
412,1455483703.49218320846557617188,568
413,1455483703.56323790550231933594,608
414,1455483703.63277363777160644531,544
415,1455483703.70213842391967773438,432
416,1455483703.772747039794921875,376
417,1455483703.84415340423583984375,424
418,1455483703.91207957267761230469,528
419,1455483703.98267912864685058594,608
420,1455483704.05262517929077148438,584
421,1455483704.12240076065063476562,472
422,1455483704.19203305244445800781,384
423,1455483704.26145768165588378906,392
424,1455483704.33281707763671875,488
425,1455483704.40285015106201171875,592
426,1455483704.47249174118041992188,600
427,1455483704.5422954559326171875,512
428,1455483704.611751556396484375,408
429,1455483704.68243432044982910156,376
430,1455483704.75206160545349121094,448
431,1455483704.82313323020935058594,560
432,1455483704.89214324951171875,608
433,1455483704.96153235435485839844,552
434,1455483705.03322386741638183594,440
435,1455483705.10204672813415527344,376
436,1455483705.17243146896362304688,416
437,1455483705.24239206314086914062,528
438,1455483705.311878204345703125,608
439,1455483705.38303446769714355469,584
440,1455483705.45211529731750488281,480
441,1455483705.52176380157470703125,384
442,1455483705.59176421165466308594,384
443,1455483705.66302943229675292969,488
444,1455483705.73374795913696289062,592
445,1455483705.80138063430786132812,608
446,1455483705.87260866165161132812,520
447,1455483705.94184947013854980469,408
448,1455483706.0115337371826171875,376
449,1455483706.08280324935913085938,448
450,1455483706.15155863761901855469,560
451,1455483706.22135949134826660156,608
452,1455483706.29230475425720214844,560
453,1455483706.36212253570556640625,448
454,1455483706.43363261222839355469,376
455,1455483706.50257277488708496094,408
456,1455483706.57190871238708496094,520
457,1455483706.64166855812072753906,608
458,1455483706.71230936050415039062,584
459,1455483706.78215432167053222656,488
460,1455483706.85230875015258789062,384
461,1455483706.95871138572692871094,424
462,1455483706.99158692359924316406,480
463,1455483707.06187605857849121094,584
464,1455483707.13254404067993164062,608
465,1455483707.20387125015258789062,520
466,1455483707.27285695075988769531,416
467,1455483707.34289526939392089844,376
468,1455483707.41253495216369628906,440
469,1455483707.48380875587463378906,552
470,1455483707.55147576332092285156,608
471,1455483707.62436676025390625,560
472,1455483707.69158315658569335938,448
473,1455483707.76458454132080078125,376
474,1455483707.83358478546142578125,408
475,1455483707.90283632278442382812,512
476,1455483707.97362112998962402344,600
477,1455483708.04307532310485839844,560
478,1455483708.11187791824340820312,608
479,1455483708.18485760688781738281,552
480,1455483708.25214362144470214844,440
481,1455483708.32280945777893066406,376
482,1455483708.39157605171203613281,408
483,1455483708.46464061737060546875,528
484,1455483708.53360819816589355469,608
485,1455483708.60396838188171386719,584
486,1455483708.67213678359985351562,480
487,1455483708.74164867401123046875,384
488,1455483708.81139802932739257812,384
489,1455483708.88365626335144042969,480
490,1455483708.95191431045532226562,584
491,1455483709.02363038063049316406,608
492,1455483709.09263277053833007812,520
493,1455483709.16238951683044433594,416
494,1455483709.23324656486511230469,376
495,1455483709.30425190925598144531,440
496,1455483709.3723392486572265625,552
497,1455483709.44248199462890625,608
498,1455483709.51142549514770507812,560
499,1455483709.58339166641235351562,448
500,1455483709.65277576446533203125,376
501,1455483709.72219586372375488281,408
502,1455483709.79244327545166015625,520
503,1455483709.862613677978515625,600
504,1455483709.93195104598999023438,592
