id, time (s), size (bits)
0,1455483674.41953492164611816406,536
1,1455483674.46969461441040039062,448
2,1455483674.51979732513427734375,384
3,1455483674.56921315193176269531,376
4,1455483674.619350433349609375,416
5,1455483674.66978955268859863281,496
6,1455483674.71944499015808105469,576
7,1455483674.76968526840209960938,608
8,1455483674.81990361213684082031,592
9,1455483674.869228363037109375,528
10,1455483674.91997289657592773438,440
11,1455483674.96974205970764160156,384
12,1455483675.01948404312133789062,376
13,1455483675.06930088996887207031,424
14,1455483675.11938571929931640625,504
15,1455483675.16906666755676269531,576
16,1455483675.21980929374694824219,608
17,1455483675.26981759071350097656,584
18,1455483675.3192958831787109375,512
19,1455483675.36959815025329589844,432
20,1455483675.41956043243408203125,376
21,1455483675.469356536865234375,376
22,1455483675.51898837089538574219,432
23,1455483675.56955814361572265625,512
24,1455483675.61948251724243164062,584
25,1455483675.67249345779418945312,608
26,1455483675.71921777725219726562,584
27,1455483675.77023983001708984375,504
28,1455483675.82006597518920898438,424
29,1455483675.86938238143920898438,376
30,1455483675.91948914527893066406,384
31,1455483675.96953272819519042969,440
32,1455483676.02023816108703613281,528
33,1455483676.06938004493713378906,592
34,1455483676.120182037353515625,608
35,1455483676.17023706436157226562,576
36,1455483676.22196841239929199219,496
37,1455483676.27109861373901367188,416
38,1455483676.3199710845947265625,376
39,1455483676.37002325057983398438,384
40,1455483676.41955876350402832031,448
41,1455483676.46926474571228027344,536
42,1455483676.51967453956604003906,600
43,1455483676.56906938552856445312,608
44,1455483676.62037181854248046875,568
45,1455483676.66908955574035644531,488
46,1455483676.71976304054260253906,408
47,1455483676.76901459693908691406,376
48,1455483676.81946206092834472656,392
49,1455483676.86913442611694335938,456
50,1455483676.91970705986022949219,544
51,1455483676.96968364715576171875,600
52,1455483677.02127361297607421875,608
53,1455483677.07011127471923828125,560
54,1455483677.11965084075927734375,480
55,1455483677.16916990280151367188,408
56,1455483677.21922421455383300781,376
57,1455483677.26898908615112304688,400
58,1455483677.3200397491455078125,472
59,1455483677.36943840980529785156,552
60,1455483677.41930603981018066406,608
61,1455483677.46990895271301269531,608
62,1455483677.52086162567138671875,552
63,1455483677.56950974464416503906,472
64,1455483677.61944079399108886719,400
65,1455483677.67040181159973144531,376
66,1455483677.71923780441284179688,400
67,1455483677.76896119117736816406,480
68,1455483677.81963515281677246094,560
69,1455483677.87003493309020996094,608
70,1455483677.92032194137573242188,600
71,1455483677.96955776214599609375,544
72,1455483678.02073216438293457031,456
73,1455483678.06982588768005371094,392
74,1455483678.11963605880737304688,376
75,1455483678.16900348663330078125,408
76,1455483678.22030854225158691406,488
77,1455483678.27018523216247558594,568
78,1455483678.31928277015686035156,608
79,1455483678.37137174606323242188,592
80,1455483678.41923022270202636719,536
81,1455483678.46893835067749023438,448
82,1455483678.51992964744567871094,384
83,1455483678.56990528106689453125,376
84,1455483678.61999678611755371094,416
85,1455483678.66921973228454589844,496
86,1455483678.72018027305603027344,576
87,1455483678.76962876319885253906,608
88,1455483678.81924414634704589844,592
89,1455483678.86899161338806152344,528
90,1455483678.91956162452697753906,440
91,1455483678.96949934959411621094,384
92,1455483679.01936841011047363281,376
93,1455483679.07091498374938964844,424
94,1455483679.12095689773559570312,512
95,1455483679.16996979713439941406,584
96,1455483679.21904921531677246094,608
97,1455483679.26966214179992675781,584
98,1455483679.31946682929992675781,512
99,1455483679.36928915977478027344,432
100,1455483679.42179369926452636719,376
101,1455483679.46997380256652832031,376
102,1455483679.5193080902099609375,432
103,1455483679.56979656219482421875,512
104,1455483679.61993503570556640625,584
105,1455483679.66904735565185546875,608
106,1455483679.72003436088562011719,576
107,1455483679.76958799362182617188,504
108,1455483679.8199138641357421875,424
109,1455483679.86978197097778320312,376
110,1455483679.9198703765869140625,384
111,1455483679.96900224685668945312,440
112,1455483680.02026677131652832031,528
113,1455483680.0696582794189453125,592
114,1455483680.11912059783935546875,608
115,1455483680.16968011856079101562,576
116,1455483680.21951389312744140625,496
117,1455483680.26918077468872070312,416
118,1455483680.32030391693115234375,376
119,1455483680.36966490745544433594,384
120,1455483680.42005395889282226562,448
121,1455483680.47099137306213378906,536
122,1455483680.51984524726867675781,600
123,1455483680.56999349594116210938,608
124,1455483680.62011051177978515625,568
125,1455483680.67013716697692871094,488
126,1455483680.71997427940368652344,408
127,1455483680.77001833915710449219,376
128,1455483680.81922864913940429688,392
129,1455483680.8698520660400390625,456
130,1455483680.9196681976318359375,544
131,1455483680.96984195709228515625,600
132,1455483681.02040910720825195312,528
133,1455483681.06915974617004394531,592
134,1455483681.11998963356018066406,608
135,1455483681.17020750045776367188,576
136,1455483681.22018790245056152344,496
137,1455483681.27025890350341796875,416
138,1455483681.319793701171875,376
139,1455483681.36946964263916015625,384
140,1455483681.41998147964477539062,448
141,1455483681.47048401832580566406,536
142,1455483681.52069044113159179688,600
143,1455483681.57000851631164550781,608
144,1455483681.61913013458251953125,568
145,1455483681.66938161849975585938,488
146,1455483681.71977019309997558594,408
147,1455483681.77099323272705078125,376
148,1455483681.81928372383117675781,392
149,1455483681.86985993385314941406,464
150,1455483681.91940140724182128906,544
151,1455483681.96950387954711914062,600
152,1455483682.01957178115844726562,608
153,1455483682.06954407691955566406,560
154,1455483682.12112069129943847656,472
155,1455483682.16976690292358398438,400
156,1455483682.22038125991821289062,376
157,1455483682.27041912078857421875,400
158,1455483682.31922221183776855469,472
159,1455483682.37000370025634765625,552
160,1455483682.41953444480895996094,608
161,1455483682.46955132484436035156,608
162,1455483682.51985955238342285156,552
163,1455483682.57103562355041503906,464
164,1455483682.61964011192321777344,400
165,1455483682.66998696327209472656,376
166,1455483682.71919155120849609375,400
167,1455483682.77020502090454101562,480
168,1455483682.81927466392517089844,560
169,1455483682.86901497840881347656,608
170,1455483682.91918849945068359375,600
171,1455483682.96951580047607421875,544
172,1455483683.01976108551025390625,456
173,1455483683.06974482536315917969,392
174,1455483683.1201763153076171875,376
175,1455483683.17005586624145507812,408
176,1455483683.21959090232849121094,488
177,1455483683.26981449127197265625,568
178,1455483683.32005524635314941406,608
179,1455483683.36916995048522949219,600
180,1455483683.41976261138916015625,536
181,1455483683.46912121772766113281,448
182,1455483683.51899647712707519531,384
183,1455483683.57013750076293945312,376
184,1455483683.61900949478149414062,416
185,1455483683.66929006576538085938,496
186,1455483683.72087025642395019531,576
187,1455483683.76929783821105957031,608
188,1455483683.81989169120788574219,592
189,1455483683.86894178390502929688,528
190,1455483683.9194660186767578125,440
191,1455483683.97033524513244628906,384
192,1455483684.02025175094604492188,376
193,1455483684.06997966766357421875,424
194,1455483684.11955118179321289062,504
195,1455483684.17027235031127929688,584
196,1455483684.22090625762939453125,608
197,1455483684.26986026763916015625,584
198,1455483684.3195438385009765625,512
199,1455483684.36986064910888671875,432
200,1455483684.41970109939575195312,376
201,1455483684.46895551681518554688,376
202,1455483684.51981091499328613281,432
203,1455483684.570709228515625,520
204,1455483684.61961030960083007812,584
205,1455483684.67160558700561523438,608
206,1455483684.71980500221252441406,576
207,1455483684.77036118507385253906,504
208,1455483684.81960415840148925781,424
209,1455483684.86990427970886230469,376
210,1455483684.91948413848876953125,384
211,1455483684.968975067138671875,440
212,1455483685.02132153511047363281,528
213,1455483685.06923437118530273438,592
214,1455483685.119640350341796875,608
215,1455483685.16903209686279296875,576
216,1455483685.21952795982360839844,496
217,1455483685.26952624320983886719,416
218,1455483685.32001829147338867188,376
219,1455483685.36981701850891113281,384
220,1455483685.41969585418701171875,448
221,1455483685.47008228302001953125,536
222,1455483685.51916384696960449219,600
223,1455483685.57032275199890136719,608
224,1455483685.61984705924987792969,568
225,1455483685.669872283935546875,488
226,1455483685.72022771835327148438,408
227,1455483685.76897358894348144531,376
228,1455483685.81994557380676269531,392
229,1455483685.86935257911682128906,456
230,1455483685.92023015022277832031,544
231,1455483685.96988892555236816406,600
232,1455483686.01959562301635742188,608
233,1455483686.06968212127685546875,560
234,1455483686.11999654769897460938,480
235,1455483686.16970014572143554688,400
236,1455483686.21968793869018554688,376
237,1455483686.26894330978393554688,400
238,1455483686.32039928436279296875,472
239,1455483686.36945748329162597656,552
240,1455483686.42015147209167480469,608
241,1455483686.46992421150207519531,608
242,1455483686.51898407936096191406,552
243,1455483686.56968140602111816406,472
244,1455483686.61979317665100097656,400
245,1455483686.66965508460998535156,376
246,1455483686.7198925018310546875,408
247,1455483686.77129578590393066406,480
248,1455483686.81987977027893066406,560
249,1455483686.86923146247863769531,608
250,1455483686.91930246353149414062,600
251,1455483686.96900081634521484375,544
252,1455483687.0203227996826171875,456
253,1455483687.06942272186279296875,392
254,1455483687.12011241912841796875,376
255,1455483687.17031073570251464844,408
256,1455483687.21984791755676269531,488
257,1455483687.26947879791259765625,568
258,1455483687.31972503662109375,608
259,1455483687.36900448799133300781,600
260,1455483687.41966557502746582031,536
261,1455483687.47020196914672851562,448
262,1455483687.52103543281555175781,384
263,1455483687.570346832275390625,376
264,1455483687.6195430755615234375,416
265,1455483687.66959285736083984375,496
266,1455483687.7199115753173828125,576
267,1455483687.76985692977905273438,608
268,1455483687.82174038887023925781,592
269,1455483687.86899161338806152344,528
270,1455483687.91946291923522949219,440
271,1455483687.96992230415344238281,384
272,1455483688.01966500282287597656,376
273,1455483688.06932735443115234375,424
274,1455483688.12008714675903320312,504
275,1455483688.169284820556640625,576
276,1455483688.21972298622131347656,608
277,1455483688.26943063735961914062,584
278,1455483688.31896495819091796875,520
279,1455483688.37017583847045898438,432
280,1455483688.41970515251159667969,376
281,1455483688.46898889541625976562,376
282,1455483688.51962423324584960938,432
283,1455483688.56970953941345214844,512
284,1455483688.61951231956481933594,584
285,1455483688.66939973831176757812,608
286,1455483688.71976542472839355469,576
287,1455483688.77057957649230957031,504
288,1455483688.81986856460571289062,424
289,1455483688.87056517601013183594,376
290,1455483688.91964483261108398438,384
291,1455483688.96975231170654296875,440
292,1455483689.01998400688171386719,528
293,1455483689.0699176788330078125,592
294,1455483689.11912822723388671875,608
295,1455483689.16990017890930175781,576
296,1455483689.21952366828918457031,496
297,1455483689.26922369003295898438,416
298,1455483689.32007527351379394531,376
299,1455483689.37020206451416015625,384
300,1455483689.42026066780090332031,448
301,1455483689.46915912628173828125,536
302,1455483689.51976752281188964844,600
303,1455483689.57026553153991699219,608
304,1455483689.62022662162780761719,568
305,1455483689.67027950286865234375,488
306,1455483689.71990275382995605469,408
307,1455483689.76987433433532714844,376
308,1455483689.81929492950439453125,392
309,1455483689.86917781829833984375,456
310,1455483689.92075848579406738281,544
311,1455483689.970478057861328125,600
312,1455483690.01915884017944335938,528
313,1455483690.0697536468505859375,592
314,1455483690.11944174766540527344,608
315,1455483690.17002058029174804688,576
316,1455483690.2193775177001953125,496
317,1455483690.27059030532836914062,416
318,1455483690.32074904441833496094,376
319,1455483690.36950254440307617188,384
320,1455483690.41983675956726074219,448
321,1455483690.47020888328552246094,536
322,1455483690.51954126358032226562,600
323,1455483690.57008194923400878906,608
324,1455483690.62016654014587402344,568
325,1455483690.66989016532897949219,488
326,1455483690.71948647499084472656,408
327,1455483690.76913356781005859375,376
328,1455483690.82001447677612304688,392
329,1455483690.86978578567504882812,456
330,1455483690.91981077194213867188,544
331,1455483690.96970343589782714844,600
332,1455483691.01966452598571777344,608
333,1455483691.06950855255126953125,560
334,1455483691.11979794502258300781,480
335,1455483691.170032501220703125,400
336,1455483691.22090458869934082031,376
337,1455483691.26949143409729003906,400
338,1455483691.32011008262634277344,472
339,1455483691.36923670768737792969,552
340,1455483691.41980695724487304688,608
341,1455483691.47030472755432128906,608
342,1455483691.5199184417724609375,552
343,1455483691.56999850273132324219,464
344,1455483691.61964082717895507812,400
345,1455483691.66943407058715820312,376
346,1455483691.72009253501892089844,408
347,1455483691.77001857757568359375,480
348,1455483691.81978368759155273438,560
349,1455483691.87037944793701171875,608
350,1455483691.91975378990173339844,600
351,1455483691.97006344795227050781,544
352,1455483692.0218791961669921875,456
353,1455483692.0694828033447265625,392
354,1455483692.12004876136779785156,376
355,1455483692.16945862770080566406,408
356,1455483692.22012472152709960938,488
357,1455483692.26976561546325683594,568
358,1455483692.31928277015686035156,608
359,1455483692.37096500396728515625,592
360,1455483692.41978549957275390625,536
361,1455483692.46897912025451660156,448
362,1455483692.51944112777709960938,384
363,1455483692.569683074951171875,376
364,1455483692.61902070045471191406,416
365,1455483692.66967511177062988281,496
366,1455483692.7196674346923828125,576
367,1455483692.77115583419799804688,608
368,1455483692.82006859779357910156,592
369,1455483692.86953473091125488281,528
370,1455483692.92013049125671386719,440
371,1455483692.96978688240051269531,384
372,1455483693.020183563232421875,376
373,1455483693.07101964950561523438,424
374,1455483693.11913132667541503906,504
375,1455483693.1696624755859375,584
376,1455483693.21965312957763671875,608
377,1455483693.26897978782653808594,584
378,1455483693.31963419914245605469,512
379,1455483693.36927366256713867188,432
380,1455483693.42013335227966308594,376
381,1455483693.4698925018310546875,376
382,1455483693.51947808265686035156,432
383,1455483693.57002186775207519531,520
384,1455483693.61966609954833984375,584
385,1455483693.67015910148620605469,608
386,1455483693.719600677490234375,584
387,1455483693.77023601531982421875,504
388,1455483693.81965303421020507812,424
389,1455483693.8700408935546875,376
390,1455483693.92004108428955078125,384
391,1455483693.97029423713684082031,440
392,1455483694.01987147331237792969,528
393,1455483694.06967401504516601562,592
394,1455483694.11924290657043457031,608
395,1455483694.16994500160217285156,576
396,1455483694.22003436088562011719,496
397,1455483694.26989603042602539062,416
398,1455483694.31982445716857910156,376
399,1455483694.36965346336364746094,384
400,1455483694.419200897216796875,448
401,1455483694.46986269950866699219,536
402,1455483694.51958751678466796875,600
403,1455483694.56934261322021484375,608
404,1455483694.62010598182678222656,568
405,1455483694.66999197006225585938,488
406,1455483694.72004294395446777344,408
407,1455483694.7698955535888671875,376
408,1455483694.81964755058288574219,392
409,1455483694.86911749839782714844,456
410,1455483694.92000174522399902344,544
411,1455483694.96993017196655273438,600
412,1455483695.02049136161804199219,608
413,1455483695.06949543952941894531,560
414,1455483695.11897206306457519531,480
415,1455483695.17140936851501464844,400
416,1455483695.21901774406433105469,376
417,1455483695.26998591423034667969,400
418,1455483695.31992673873901367188,472
419,1455483695.37010788917541503906,552
420,1455483695.42036128044128417969,608
421,1455483695.46941518783569335938,608
422,1455483695.51983499526977539062,552
423,1455483695.57025265693664550781,464
424,1455483695.61958622932434082031,400
425,1455483695.66927099227905273438,376
426,1455483695.72074604034423828125,408
427,1455483695.77071213722229003906,480
428,1455483695.81979393959045410156,560
429,1455483695.8704986572265625,608
430,1455483695.92075133323669433594,600
431,1455483695.96981739997863769531,544
432,1455483696.01920795440673828125,456
433,1455483696.06984353065490722656,392
434,1455483696.11895227432250976562,376
435,1455483696.16916775703430175781,408
436,1455483696.22092604637145996094,488
437,1455483696.27019333839416503906,568
438,1455483696.32000398635864257812,608
439,1455483696.36951208114624023438,600
440,1455483696.41919922828674316406,536
441,1455483696.46959614753723144531,448
442,1455483696.51926779747009277344,384
443,1455483696.56954693794250488281,376
444,1455483696.61979126930236816406,416
445,1455483696.66944456100463867188,496
446,1455483696.71977400779724121094,576
447,1455483696.77026844024658203125,608
448,1455483696.81940031051635742188,592
449,1455483696.86898064613342285156,528
450,1455483696.9194660186767578125,440
451,1455483696.96912670135498046875,384
452,1455483697.01963686943054199219,376
453,1455483697.06926727294921875,424
454,1455483697.11943650245666503906,504
455,1455483697.16987276077270507812,584
456,1455483697.21913313865661621094,608
457,1455483697.27023339271545410156,584
458,1455483697.31932091712951660156,512
459,1455483697.3693904876708984375,432
460,1455483697.41990423202514648438,376
461,1455483697.46993803977966308594,376
462,1455483697.51999998092651367188,432
463,1455483697.57010316848754882812,520
464,1455483697.61929416656494140625,584
465,1455483697.66903662681579589844,608
466,1455483697.71974778175354003906,576
467,1455483697.76988673210144042969,504
468,1455483697.81996297836303710938,424
469,1455483697.87000775337219238281,376
470,1455483697.91978716850280761719,384
471,1455483697.97016501426696777344,440
472,1455483698.02059245109558105469,528
473,1455483698.069286346435546875,592
474,1455483698.12002229690551757812,608
475,1455483698.1695308685302734375,576
476,1455483698.22055006027221679688,496
477,1455483698.26982140541076660156,416
478,1455483698.32023191452026367188,376
479,1455483698.37061595916748046875,392
480,1455483698.41910624504089355469,448
481,1455483698.46989345550537109375,536
482,1455483698.51969051361083984375,600
483,1455483698.56924152374267578125,608
484,1455483698.61949133872985839844,568
485,1455483698.67055726051330566406,488
486,1455483698.72043943405151367188,408
487,1455483698.76916193962097167969,376
488,1455483698.8194446563720703125,392
489,1455483698.86901426315307617188,456
490,1455483698.919651031494140625,544
491,1455483698.96964144706726074219,600
492,1455483699.02067160606384277344,528
493,1455483699.069339752197265625,592
494,1455483699.11896109580993652344,608
495,1455483699.17001581192016601562,576
496,1455483699.2198886871337890625,496
497,1455483699.26950669288635253906,416
498,1455483699.31999945640563964844,376
499,1455483699.37249159812927246094,392
500,1455483699.41992926597595214844,448
501,1455483699.46944594383239746094,536
502,1455483699.51914238929748535156,600
503,1455483699.57033038139343261719,608
