id, time (s), size (bits)
0,1455730927.74605584144592285156,704
1,1455730927.83132338523864746094,720
2,1455730927.85767316818237304688,720
3,1455730927.89646363258361816406,728
4,1455730927.94585466384887695312,728
5,1455730927.99634671211242675781,736
6,1455730928.04623723030090332031,744
7,1455730928.09565114974975585938,752
8,1455730928.14640474319458007812,760
9,1455730928.20152258872985839844,768
10,1455730928.24607825279235839844,768
11,1455730928.2965831756591796875,776
12,1455730928.34591841697692871094,784
13,1455730928.39621210098266601562,792
14,1455730928.446460723876953125,800
15,1455730928.49567174911499023438,808
16,1455730928.5458316802978515625,816
17,1455730928.59637808799743652344,824
18,1455730928.64546442031860351562,832
19,1455730928.69584488868713378906,840
20,1455730928.74597716331481933594,848
21,1455730928.79632830619812011719,856
22,1455730928.84551835060119628906,864
23,1455730928.8960361480712890625,872
24,1455730928.94633436203002929688,880
25,1455730928.99542522430419921875,888
26,1455730929.04586148262023925781,896
27,1455730929.09603548049926757812,912
28,1455730929.14643144607543945312,920
29,1455730929.19559407234191894531,928
30,1455730929.24618697166442871094,936
31,1455730929.29541063308715820312,944
32,1455730929.34558916091918945312,952
33,1455730929.39596271514892578125,960
34,1455730929.44606637954711914062,968
35,1455730929.49533963203430175781,976
36,1455730929.54531836509704589844,984
37,1455730929.59561920166015625,992
38,1455730929.6457004547119140625,1000
39,1455730929.69601178169250488281,1008
40,1455730929.74614930152893066406,1008
41,1455730929.79645466804504394531,1016
42,1455730929.84555268287658691406,1024
43,1455730929.8957424163818359375,1032
44,1455730929.94615149497985839844,1040
45,1455730929.99627804756164550781,1048
46,1455730930.04558134078979492188,1056
47,1455730930.09571909904479980469,1056
48,1455730930.14594531059265136719,1064
49,1455730930.196155548095703125,1072
50,1455730930.24641871452331542969,1072
51,1455730930.29572343826293945312,1080
52,1455730930.3457660675048828125,1088
53,1455730930.39606714248657226562,1088
54,1455730930.44615459442138671875,1096
55,1455730930.49640345573425292969,1096
56,1455730930.5455684661865234375,1104
57,1455730930.59581708908081054688,1104
58,1455730930.64594006538391113281,1112
59,1455730930.69624495506286621094,1112
60,1455730930.74528360366821289062,1120
61,1455730930.79638385772705078125,1120
62,1455730930.84556412696838378906,1120
63,1455730930.89567399024963378906,1128
64,1455730930.94596195220947265625,1128
65,1455730930.99641561508178710938,1128
66,1455730931.04572582244873046875,1128
67,1455730931.09584808349609375,1128
68,1455730931.1461181640625,1128
69,1455730931.19632744789123535156,1128
70,1455730931.24538016319274902344,1128
71,1455730931.29574513435363769531,1128
72,1455730931.34583640098571777344,1128
73,1455730931.396121978759765625,1128
74,1455730931.44619989395141601562,1128
75,1455730931.49644446372985839844,1128
76,1455730931.54560136795043945312,1128
77,1455730931.59590768814086914062,1128
78,1455730931.6461639404296875,1120
79,1455730931.69635772705078125,1120
80,1455730931.74558544158935546875,1120
81,1455730931.79576635360717773438,1112
82,1455730931.84606480598449707031,1112
83,1455730931.89639925956726074219,1104
84,1455730931.94597983360290527344,1104
85,1455730931.99620294570922851562,1104
86,1455730932.04573369026184082031,1096
87,1455730932.09647893905639648438,1088
88,1455730932.14595723152160644531,1088
89,1455730932.19589853286743164062,1080
90,1455730932.24635672569274902344,1080
91,1455730932.29598736763000488281,1072
92,1455730932.346527099609375,1064
93,1455730932.39619088172912597656,1056
94,1455730932.44571185111999511719,1056
95,1455730932.49628496170043945312,1048
96,1455730932.54582428932189941406,1040
97,1455730932.59633040428161621094,1032
98,1455730932.64599466323852539062,1024
99,1455730932.69648313522338867188,1016
100,1455730932.74616670608520507812,1016
101,1455730932.79567193984985351562,1008
102,1455730932.84647011756896972656,1000
103,1455730932.89605450630187988281,992
104,1455730932.94591403007507324219,984
105,1455730932.99637913703918457031,976
106,1455730933.04590678215026855469,968
107,1455730933.09542751312255859375,960
108,1455730933.14588785171508789062,952
109,1455730933.19646620750427246094,944
110,1455730933.24595689773559570312,936
111,1455730933.2966670989990234375,928
112,1455730933.34620547294616699219,920
113,1455730933.3957157135009765625,912
114,1455730933.44626522064208984375,904
115,1455730933.49572730064392089844,896
116,1455730933.54635095596313476562,888
117,1455730933.59577012062072753906,872
118,1455730933.64636325836181640625,864
119,1455730933.69585919380187988281,856
120,1455730933.74664592742919921875,848
121,1455730933.795986175537109375,840
122,1455730933.84663891792297363281,832
123,1455730933.89615702629089355469,824
124,1455730933.94559431076049804688,816
125,1455730933.99611878395080566406,808
126,1455730934.04553508758544921875,800
127,1455730934.09621429443359375,792
128,1455730934.14547562599182128906,784
129,1455730934.19557809829711914062,776
130,1455730934.24603438377380371094,776
131,1455730934.29655385017395019531,768
132,1455730934.34595489501953125,760
133,1455730934.39639592170715332031,752
134,1455730934.44606828689575195312,744
135,1455730934.49637055397033691406,736
136,1455730934.5459842681884765625,728
137,1455730934.59649062156677246094,728
138,1455730934.6459445953369140625,720
139,1455730934.69641923904418945312,712
140,1455730934.74600386619567871094,712
141,1455730934.79638600349426269531,704
142,1455730934.84574866294860839844,696
143,1455730934.89642357826232910156,696
144,1455730934.9458560943603515625,688
145,1455730934.99540853500366210938,688
146,1455730935.04589939117431640625,680
147,1455730935.09650969505310058594,680
148,1455730935.14583301544189453125,672
149,1455730935.19643187522888183594,672
150,1455730935.24598431587219238281,664
151,1455730935.29644179344177246094,664
152,1455730935.34595918655395507812,664
153,1455730935.39638209342956542969,656
154,1455730935.44611692428588867188,656
155,1455730935.49545383453369140625,656
156,1455730935.54607653617858886719,656
157,1455730935.59545230865478515625,656
158,1455730935.64604163169860839844,656
159,1455730935.69644665718078613281,656
160,1455730935.74591135978698730469,656
161,1455730935.79641962051391601562,656
162,1455730935.8458805084228515625,656
163,1455730935.89547634124755859375,656
164,1455730935.94607949256896972656,656
165,1455730935.99558329582214355469,656
166,1455730936.0460834503173828125,656
167,1455730936.09557366371154785156,656
168,1455730936.14597344398498535156,664
169,1455730936.19636130332946777344,664
170,1455730936.24602723121643066406,664
171,1455730936.29641675949096679688,672
172,1455730936.3459415435791015625,672
173,1455730936.39628815650939941406,680
174,1455730936.44582819938659667969,680
175,1455730936.49618792533874511719,680
176,1455730936.54587435722351074219,688
177,1455730936.59640669822692871094,696
178,1455730936.64570140838623046875,696
179,1455730936.696399688720703125,704
180,1455730936.74586915969848632812,704
181,1455730936.79643082618713378906,712
182,1455730936.84581017494201660156,720
183,1455730936.89634180068969726562,728
184,1455730936.94584012031555175781,728
185,1455730936.99623847007751464844,736
186,1455730937.04575634002685546875,744
187,1455730937.09602999687194824219,752
188,1455730937.14561748504638671875,760
189,1455730937.1961154937744140625,768
190,1455730937.24572896957397460938,768
191,1455730937.29609608650207519531,776
192,1455730937.34561300277709960938,784
193,1455730937.39599061012268066406,792
194,1455730937.44644808769226074219,800
195,1455730937.49600005149841308594,808
196,1455730937.54644250869750976562,816
197,1455730937.59618139266967773438,824
198,1455730937.64544987678527832031,832
199,1455730937.69617795944213867188,840
200,1455730937.74566936492919921875,848
201,1455730937.796192169189453125,856
202,1455730937.845584869384765625,864
203,1455730937.89611411094665527344,872
204,1455730937.94568300247192382812,880
205,1455730937.99603796005249023438,888
206,1455730938.04587268829345703125,896
207,1455730938.09648966789245605469,912
208,1455730938.146190643310546875,920
209,1455730938.19548583030700683594,928
210,1455730938.2461395263671875,936
211,1455730938.29557847976684570312,944
212,1455730938.34605741500854492188,952
213,1455730938.39645624160766601562,960
214,1455730938.44593763351440429688,968
215,1455730938.4954662322998046875,976
216,1455730938.54595446586608886719,984
217,1455730938.595439910888671875,992
218,1455730938.64590883255004882812,1000
219,1455730938.69651937484741210938,1008
220,1455730938.74602437019348144531,1008
221,1455730938.79566311836242675781,1016
222,1455730938.84627175331115722656,1024
223,1455730938.89571356773376464844,1032
224,1455730938.94639158248901367188,1040
225,1455730938.99583125114440917969,1048
226,1455730939.04632091522216796875,1056
227,1455730939.09566450119018554688,1056
228,1455730939.14615535736083984375,1064
229,1455730939.19549131393432617188,1072
230,1455730939.24619531631469726562,1072
231,1455730939.29569768905639648438,1080
232,1455730939.3461761474609375,1088
233,1455730939.39562249183654785156,1088
234,1455730939.44608950614929199219,1096
235,1455730939.49567818641662597656,1096
236,1455730939.54604196548461914062,1104
237,1455730939.59560251235961914062,1104
238,1455730939.64597225189208984375,1112
239,1455730939.69658064842224121094,1112
240,1455730939.74600815773010253906,1120
241,1455730939.79634308815002441406,1120
242,1455730939.84595274925231933594,1120
243,1455730939.89636707305908203125,1128
244,1455730939.94598460197448730469,1128
245,1455730939.9962615966796875,1128
246,1455730940.04588484764099121094,1128
247,1455730940.09641170501708984375,1128
248,1455730940.1458683013916015625,1128
249,1455730940.19629788398742675781,1128
250,1455730940.24579930305480957031,1128
251,1455730940.29632282257080078125,1128
252,1455730940.34580636024475097656,1128
253,1455730940.39630270004272460938,1128
254,1455730940.445644378662109375,1128
255,1455730940.49620771408081054688,1128
256,1455730940.54576611518859863281,1128
257,1455730940.59625101089477539062,1128
258,1455730940.6456298828125,1120
259,1455730940.69617605209350585938,1120
260,1455730940.74579215049743652344,1120
261,1455730940.79614758491516113281,1112
262,1455730940.84574794769287109375,1112
263,1455730940.89613986015319824219,1104
264,1455730940.9456348419189453125,1104
265,1455730940.99604201316833496094,1104
266,1455730941.04652190208435058594,1096
267,1455730941.09591937065124511719,1088
268,1455730941.14625120162963867188,1088
269,1455730941.19581675529479980469,1080
270,1455730941.24616074562072753906,1080
271,1455730941.29583978652954101562,1072
272,1455730941.34634947776794433594,1064
273,1455730941.39586234092712402344,1056
274,1455730941.44636678695678710938,1056
275,1455730941.49590897560119628906,1048
276,1455730941.54639315605163574219,1040
277,1455730941.59576082229614257812,1032
278,1455730941.64639377593994140625,1024
279,1455730941.69581389427185058594,1016
280,1455730941.74633145332336425781,1016
281,1455730941.7957057952880859375,1008
282,1455730941.84644913673400878906,1000
283,1455730941.89582777023315429688,992
284,1455730941.94598889350891113281,984
285,1455730941.99645495414733886719,976
286,1455730942.04584074020385742188,968
287,1455730942.09650540351867675781,960
288,1455730942.14595580101013183594,952
289,1455730942.19547939300537109375,944
290,1455730942.24599170684814453125,936
291,1455730942.29651141166687011719,928
292,1455730942.34598207473754882812,920
293,1455730942.39645981788635253906,912
294,1455730942.44597458839416503906,904
295,1455730942.49628376960754394531,896
296,1455730942.54589009284973144531,888
297,1455730942.59634685516357421875,872
298,1455730942.64600419998168945312,864
299,1455730942.69635248184204101562,856
300,1455730942.74592900276184082031,848
301,1455730942.79627156257629394531,840
302,1455730942.84587192535400390625,832
303,1455730942.8963470458984375,824
304,1455730942.94583034515380859375,816
305,1455730942.99627709388732910156,808
306,1455730943.04579973220825195312,800
307,1455730943.09649634361267089844,792
308,1455730943.14595437049865722656,784
309,1455730943.19651103019714355469,776
310,1455730943.24608397483825683594,776
311,1455730943.29577755928039550781,768
312,1455730943.34636139869689941406,760
313,1455730943.39567804336547851562,752
314,1455730943.44632220268249511719,744
315,1455730943.49581074714660644531,736
316,1455730943.54544734954833984375,728
317,1455730943.59577131271362304688,728
318,1455730943.646305084228515625,720
319,1455730943.6956634521484375,712
320,1455730943.74616551399230957031,712
321,1455730943.795536041259765625,704
322,1455730943.8459625244140625,696
323,1455730943.89562344551086425781,696
324,1455730943.94616937637329101562,688
325,1455730943.99595570564270019531,688
326,1455730944.04629683494567871094,680
327,1455730944.09577870368957519531,680
328,1455730944.14625859260559082031,672
329,1455730944.19589114189147949219,672
330,1455730944.24643683433532714844,664
331,1455730944.29584932327270507812,664
332,1455730944.34565305709838867188,664
333,1455730944.3962039947509765625,656
334,1455730944.44569063186645507812,656
335,1455730944.49604725837707519531,656
336,1455730944.54559540748596191406,656
337,1455730944.59589838981628417969,656
338,1455730944.64637589454650878906,656
339,1455730944.69581747055053710938,656
340,1455730944.74608731269836425781,656
341,1455730944.79575777053833007812,656
342,1455730944.84625291824340820312,656
343,1455730944.89582848548889160156,656
344,1455730944.94630265235900878906,656
345,1455730944.99585676193237304688,656
346,1455730945.04621100425720214844,656
347,1455730945.09568238258361816406,656
348,1455730945.14605927467346191406,664
349,1455730945.19641590118408203125,664
350,1455730945.24612784385681152344,664
351,1455730945.29560375213623046875,672
352,1455730945.34603595733642578125,672
353,1455730945.39638543128967285156,680
354,1455730945.44592165946960449219,680
355,1455730945.49625563621520996094,680
356,1455730945.54587602615356445312,688
357,1455730945.59640002250671386719,696
358,1455730945.64569425582885742188,696
359,1455730945.69643545150756835938,704
360,1455730945.74587202072143554688,704
361,1455730945.79643750190734863281,712
362,1455730945.8458805084228515625,720
363,1455730945.89656710624694824219,728
364,1455730945.94598555564880371094,728
365,1455730945.99646592140197753906,736
366,1455730946.04589152336120605469,744
367,1455730946.09637594223022460938,752
368,1455730946.14604806900024414062,760
369,1455730946.1964397430419921875,768
370,1455730946.24607253074645996094,768
371,1455730946.29643297195434570312,776
372,1455730946.345905303955078125,784
373,1455730946.39626240730285644531,792
374,1455730946.44584202766418457031,800
375,1455730946.49623918533325195312,808
376,1455730946.54561185836791992188,816
377,1455730946.59626340866088867188,824
378,1455730946.64555263519287109375,832
379,1455730946.69621300697326660156,840
380,1455730946.74563813209533691406,848
381,1455730946.79614710807800292969,856
382,1455730946.84561896324157714844,864
383,1455730946.89627194404602050781,872
384,1455730946.94567608833312988281,880
385,1455730946.99602365493774414062,888
386,1455730947.04546189308166503906,896
387,1455730947.09580898284912109375,912
388,1455730947.14638829231262207031,920
389,1455730947.195827484130859375,928
390,1455730947.24630570411682128906,936
391,1455730947.29573869705200195312,944
392,1455730947.34628653526306152344,952
393,1455730947.39565873146057128906,960
394,1455730947.44613170623779296875,968
395,1455730947.49572610855102539062,976
396,1455730947.54605627059936523438,984
397,1455730947.59565639495849609375,992
398,1455730947.64599180221557617188,1000
399,1455730947.69651770591735839844,1008
400,1455730947.74597978591918945312,1008
401,1455730947.79647564888000488281,1016
402,1455730947.84590363502502441406,1024
403,1455730947.89635586738586425781,1032
404,1455730947.94607019424438476562,1040
405,1455730947.99633812904357910156,1048
406,1455730948.045848846435546875,1056
407,1455730948.09634685516357421875,1056
408,1455730948.145786285400390625,1064
409,1455730948.19633460044860839844,1072
410,1455730948.24597477912902832031,1072
411,1455730948.29640793800354003906,1080
412,1455730948.34623169898986816406,1088
413,1455730948.39579296112060546875,1088
414,1455730948.44634747505187988281,1096
415,1455730948.49601078033447265625,1096
416,1455730948.54639673233032226562,1104
417,1455730948.5960216522216796875,1104
418,1455730948.64640974998474121094,1112
419,1455730948.69591116905212402344,1112
420,1455730948.74630999565124511719,1120
421,1455730948.79570722579956054688,1120
422,1455730948.84634327888488769531,1120
423,1455730948.89568328857421875,1128
424,1455730948.94623517990112304688,1128
425,1455730948.99564504623413085938,1128
426,1455730949.04619479179382324219,1128
427,1455730949.09549665451049804688,1128
428,1455730949.14596080780029296875,1128
429,1455730949.1963787078857421875,1128
430,1455730949.24584913253784179688,1128
431,1455730949.29637241363525390625,1128
432,1455730949.34572958946228027344,1128
433,1455730949.39622020721435546875,1128
434,1455730949.44547629356384277344,1128
435,1455730949.49604725837707519531,1128
436,1455730949.54642510414123535156,1128
437,1455730949.59589457511901855469,1128
438,1455730949.64637994766235351562,1120
439,1455730949.695796966552734375,1120
440,1455730949.74624872207641601562,1120
441,1455730949.79563736915588378906,1112
442,1455730949.84623861312866210938,1112
443,1455730949.895549774169921875,1112
444,1455730949.94634556770324707031,1104
445,1455730949.99583530426025390625,1104
446,1455730950.04631352424621582031,1096
447,1455730950.09583163261413574219,1088
448,1455730950.14617681503295898438,1088
449,1455730950.19570374488830566406,1080
450,1455730950.24607038497924804688,1080
451,1455730950.29568266868591308594,1072
452,1455730950.34598636627197265625,1064
453,1455730950.39658784866333007812,1056
454,1455730950.446041107177734375,1056
455,1455730950.49645352363586425781,1048
456,1455730950.54585814476013183594,1040
457,1455730950.59633898735046386719,1032
458,1455730950.64581036567687988281,1024
459,1455730950.69631814956665039062,1016
460,1455730950.74596285820007324219,1016
461,1455730950.79633069038391113281,1008
462,1455730950.84582233428955078125,1000
463,1455730950.89625859260559082031,992
464,1455730950.94589757919311523438,984
465,1455730950.99627399444580078125,976
466,1455730951.04565763473510742188,968
467,1455730951.09628248214721679688,960
468,1455730951.1455841064453125,952
469,1455730951.19632625579833984375,944
470,1455730951.24578452110290527344,936
471,1455730951.29631805419921875,928
472,1455730951.3457126617431640625,920
473,1455730951.3961505889892578125,912
474,1455730951.44553589820861816406,904
475,1455730951.49588990211486816406,896
476,1455730951.54637098312377929688,888
477,1455730951.59573578834533691406,872
478,1455730951.64630556106567382812,864
479,1455730951.69567775726318359375,856
480,1455730951.74617171287536621094,848
481,1455730951.79550051689147949219,840
482,1455730951.84598588943481445312,832
483,1455730951.89644527435302734375,824
484,1455730951.94584941864013671875,816
485,1455730951.99641776084899902344,808
486,1455730952.04581713676452636719,800
487,1455730952.09542632102966308594,792
488,1455730952.145854949951171875,784
489,1455730952.19648456573486328125,776
490,1455730952.24596953392028808594,776
491,1455730952.29653954505920410156,768
492,1455730952.34592366218566894531,760
493,1455730952.3962879180908203125,752
494,1455730952.44581341743469238281,744
495,1455730952.49612689018249511719,736
496,1455730952.54581093788146972656,728
497,1455730952.59629130363464355469,728
498,1455730952.64582562446594238281,720
499,1455730952.696319580078125,712
