id, time (s), size (bits)
0,1455730927.822216033935546875,720
1,1455730927.92444014549255371094,728
2,1455730927.92575526237487792969,728
3,1455730927.97231960296630859375,736
4,1455730928.02164816856384277344,744
5,1455730928.07305884361267089844,744
6,1455730928.12257218360900878906,752
7,1455730928.17194771766662597656,760
8,1455730928.22703790664672851562,768
9,1455730928.27169084548950195312,776
10,1455730928.32235240936279296875,784
11,1455730928.37189722061157226562,792
12,1455730928.42250490188598632812,800
13,1455730928.47286224365234375,808
14,1455730928.52438998222351074219,816
15,1455730928.57232761383056640625,824
16,1455730928.62160348892211914062,832
17,1455730928.67214083671569824219,840
18,1455730928.72254872322082519531,848
19,1455730928.77208948135375976562,856
20,1455730928.82232046127319335938,864
21,1455730928.87169861793518066406,872
22,1455730928.92191648483276367188,880
23,1455730928.97236919403076171875,888
24,1455730929.02176380157470703125,896
25,1455730929.07194447517395019531,904
26,1455730929.12255144119262695312,912
27,1455730929.17174530029296875,920
28,1455730929.22211813926696777344,928
29,1455730929.27229928970336914062,936
30,1455730929.32152986526489257812,944
31,1455730929.37173008918762207031,952
32,1455730929.42198657989501953125,960
33,1455730929.47236704826354980469,968
34,1455730929.52142810821533203125,976
35,1455730929.57184147834777832031,984
36,1455730929.62198543548583984375,992
37,1455730929.67227268218994140625,1000
38,1455730929.72250270843505859375,1008
39,1455730929.77192521095275878906,1016
40,1455730929.82208967208862304688,1024
41,1455730929.87236881256103515625,1032
42,1455730929.92146325111389160156,1032
43,1455730929.97160029411315917969,1040
44,1455730930.02208089828491210938,1048
45,1455730930.07224941253662109375,1056
46,1455730930.12181520462036132812,1064
47,1455730930.17194461822509765625,1064
48,1455730930.22256112098693847656,1072
49,1455730930.27183008193969726562,1080
50,1455730930.32241773605346679688,1080
51,1455730930.37168741226196289062,1088
52,1455730930.42182564735412597656,1096
53,1455730930.47214984893798828125,1096
54,1455730930.52231168746948242188,1104
55,1455730930.5715789794921875,1104
56,1455730930.62185907363891601562,1112
57,1455730930.67213749885559082031,1112
58,1455730930.72233629226684570312,1112
59,1455730930.77155256271362304688,1120
60,1455730930.82175111770629882812,1120
61,1455730930.87211370468139648438,1120
62,1455730930.92240095138549804688,1128
63,1455730930.97177195549011230469,1128
64,1455730931.02204084396362304688,1128
65,1455730931.07145619392395019531,1128
66,1455730931.12177395820617675781,1128
67,1455730931.17192983627319335938,1128
68,1455730931.22223782539367675781,1128
69,1455730931.27244877815246582031,1128
70,1455730931.3215427398681640625,1128
71,1455730931.37187099456787109375,1128
72,1455730931.42197966575622558594,1128
73,1455730931.47230887413024902344,1128
74,1455730931.52133059501647949219,1128
75,1455730931.57154965400695800781,1128
76,1455730931.62172746658325195312,1120
77,1455730931.67230248451232910156,1120
78,1455730931.72146010398864746094,1120
79,1455730931.77165770530700683594,1120
80,1455730931.82201433181762695312,1112
81,1455730931.87261486053466796875,1112
82,1455730931.92193937301635742188,1104
83,1455730931.97222065925598144531,1104
84,1455730932.02260661125183105469,1096
85,1455730932.07191395759582519531,1096
86,1455730932.12260890007019042969,1088
87,1455730932.1721706390380859375,1080
88,1455730932.22157955169677734375,1080
89,1455730932.272247314453125,1072
90,1455730932.32178831100463867188,1064
91,1455730932.37237191200256347656,1064
92,1455730932.42185807228088378906,1056
93,1455730932.47253966331481933594,1048
94,1455730932.52214670181274414062,1040
95,1455730932.57167959213256835938,1040
96,1455730932.62222957611083984375,1032
97,1455730932.67171740531921386719,1024
98,1455730932.72242999076843261719,1016
99,1455730932.77200436592102050781,1008
100,1455730932.82164525985717773438,1000
101,1455730932.87211275100708007812,992
102,1455730932.92174458503723144531,984
103,1455730932.9723873138427734375,976
104,1455730933.02213740348815917969,968
105,1455730933.0715770721435546875,960
106,1455730933.12209057807922363281,952
107,1455730933.17170166969299316406,944
108,1455730933.22216534614562988281,936
109,1455730933.27178978919982910156,928
110,1455730933.32219171524047851562,920
111,1455730933.371822357177734375,912
112,1455730933.42234969139099121094,904
113,1455730933.47185826301574707031,896
114,1455730933.52241373062133789062,888
115,1455730933.57186532020568847656,880
116,1455730933.6224384307861328125,872
117,1455730933.67183041572570800781,864
118,1455730933.72236227989196777344,856
119,1455730933.77188134193420410156,848
120,1455730933.82245898246765136719,840
121,1455730933.87192463874816894531,832
122,1455730933.92252659797668457031,824
123,1455730933.97201061248779296875,816
124,1455730934.02146005630493164062,808
125,1455730934.07207489013671875,800
126,1455730934.12148165702819824219,792
127,1455730934.17216420173645019531,784
128,1455730934.22187876701354980469,776
129,1455730934.27206897735595703125,768
130,1455730934.32149600982666015625,760
131,1455730934.37208724021911621094,752
132,1455730934.421482086181640625,752
133,1455730934.47191596031188964844,744
134,1455730934.52146124839782714844,736
135,1455730934.57189536094665527344,728
136,1455730934.62153649330139160156,720
137,1455730934.67191600799560546875,720
138,1455730934.72241735458374023438,712
139,1455730934.77195262908935546875,704
140,1455730934.82247376441955566406,704
141,1455730934.87189054489135742188,696
142,1455730934.92238354682922363281,688
143,1455730934.97194147109985351562,688
144,1455730935.0224170684814453125,680
145,1455730935.07206892967224121094,680
146,1455730935.12252712249755859375,672
147,1455730935.17201662063598632812,672
148,1455730935.2217426300048828125,672
149,1455730935.27232813835144042969,664
150,1455730935.32181072235107421875,664
151,1455730935.37224054336547851562,664
152,1455730935.42185902595520019531,656
153,1455730935.47230267524719238281,656
154,1455730935.52208709716796875,656
155,1455730935.57254362106323242188,656
156,1455730935.62200260162353515625,656
157,1455730935.67252135276794433594,656
158,1455730935.72206640243530273438,656
159,1455730935.77258396148681640625,656
160,1455730935.82205104827880859375,656
161,1455730935.87158036231994628906,656
162,1455730935.92194437980651855469,656
163,1455730935.97253870964050292969,656
164,1455730936.02213335037231445312,656
165,1455730936.07162570953369140625,656
166,1455730936.12211012840270996094,664
167,1455730936.17269086837768554688,664
168,1455730936.22218656539916992188,664
169,1455730936.27149915695190429688,664
170,1455730936.3223209381103515625,672
171,1455730936.3716907501220703125,672
172,1455730936.42231655120849609375,680
173,1455730936.47154021263122558594,680
174,1455730936.52220749855041503906,688
175,1455730936.57177281379699707031,688
176,1455730936.62245535850524902344,696
177,1455730936.67192053794860839844,704
178,1455730936.72234559059143066406,704
179,1455730936.77211856842041015625,712
180,1455730936.82150411605834960938,720
181,1455730936.8721027374267578125,720
182,1455730936.92147970199584960938,728
183,1455730936.97206354141235351562,736
184,1455730937.02249288558959960938,744
185,1455730937.07204580307006835938,744
186,1455730937.12149262428283691406,752
187,1455730937.17176890373229980469,760
188,1455730937.222469329833984375,768
189,1455730937.27186274528503417969,776
190,1455730937.32245683670043945312,784
191,1455730937.37184691429138183594,792
192,1455730937.42247724533081054688,800
193,1455730937.471927642822265625,808
194,1455730937.52253961563110351562,816
195,1455730937.57204580307006835938,824
196,1455730937.62247514724731445312,832
197,1455730937.67217111587524414062,840
198,1455730937.72251439094543457031,848
199,1455730937.77209758758544921875,856
200,1455730937.82148456573486328125,864
201,1455730937.87207746505737304688,872
202,1455730937.92148423194885253906,880
203,1455730937.97207617759704589844,888
204,1455730938.02152919769287109375,896
205,1455730938.07186102867126464844,904
206,1455730938.12161588668823242188,912
207,1455730938.17221617698669433594,920
208,1455730938.221851348876953125,928
209,1455730938.2723064422607421875,936
210,1455730938.32188344001770019531,944
211,1455730938.37225270271301269531,952
212,1455730938.4218292236328125,960
213,1455730938.47235941886901855469,968
214,1455730938.52175426483154296875,976
215,1455730938.57227253913879394531,984
216,1455730938.62169694900512695312,992
217,1455730938.67233252525329589844,1000
218,1455730938.72183537483215332031,1008
219,1455730938.7724895477294921875,1016
220,1455730938.82202696800231933594,1024
221,1455730938.87266612052917480469,1032
222,1455730938.92224431037902832031,1040
223,1455730938.971584320068359375,1040
224,1455730939.02224802970886230469,1048
225,1455730939.07154870033264160156,1056
226,1455730939.12205362319946289062,1064
227,1455730939.17250227928161621094,1064
228,1455730939.22206449508666992188,1072
229,1455730939.27146291732788085938,1080
230,1455730939.32201600074768066406,1080
231,1455730939.372440338134765625,1088
232,1455730939.42190575599670410156,1096
233,1455730939.47241497039794921875,1096
234,1455730939.52182483673095703125,1104
235,1455730939.5722522735595703125,1104
236,1455730939.6217670440673828125,1112
237,1455730939.67232942581176757812,1112
238,1455730939.72165441513061523438,1112
239,1455730939.772365570068359375,1120
240,1455730939.82189702987670898438,1120
241,1455730939.87222981452941894531,1120
242,1455730939.92185068130493164062,1128
243,1455730939.97218632698059082031,1128
244,1455730940.02181124687194824219,1128
245,1455730940.072200775146484375,1128
246,1455730940.12173795700073242188,1128
247,1455730940.1725368499755859375,1128
248,1455730940.22214913368225097656,1128
249,1455730940.27253055572509765625,1128
250,1455730940.32197618484497070312,1128
251,1455730940.37247443199157714844,1128
252,1455730940.42184495925903320312,1128
253,1455730940.47240662574768066406,1128
254,1455730940.52190518379211425781,1128
255,1455730940.57241129875183105469,1128
256,1455730940.62183737754821777344,1120
257,1455730940.67240262031555175781,1120
258,1455730940.72183322906494140625,1120
259,1455730940.772319793701171875,1120
260,1455730940.82195830345153808594,1112
261,1455730940.87236952781677246094,1112
262,1455730940.92188215255737304688,1104
263,1455730940.97224855422973632812,1104
264,1455730941.0218868255615234375,1096
265,1455730941.07224893569946289062,1096
266,1455730941.12169408798217773438,1088
267,1455730941.17223358154296875,1080
268,1455730941.22250390052795410156,1080
269,1455730941.27205753326416015625,1072
270,1455730941.321445465087890625,1064
271,1455730941.37204098701477050781,1064
272,1455730941.422542572021484375,1056
273,1455730941.47216701507568359375,1048
274,1455730941.52146649360656738281,1040
275,1455730941.57192635536193847656,1040
276,1455730941.62235093116760253906,1032
277,1455730941.67172074317932128906,1024
278,1455730941.72225975990295410156,1016
279,1455730941.77155804634094238281,1008
280,1455730941.82209277153015136719,1000
281,1455730941.87243866920471191406,992
282,1455730941.92222499847412109375,984
283,1455730941.97156000137329101562,976
284,1455730942.02225542068481445312,968
285,1455730942.07183098793029785156,960
286,1455730942.12220478057861328125,952
287,1455730942.17171549797058105469,944
288,1455730942.22208619117736816406,936
289,1455730942.27181148529052734375,928
290,1455730942.32213449478149414062,920
291,1455730942.37165164947509765625,912
292,1455730942.42195034027099609375,904
293,1455730942.47249174118041992188,896
294,1455730942.52194166183471679688,888
295,1455730942.57225704193115234375,880
296,1455730942.62180042266845703125,872
297,1455730942.67224287986755371094,864
298,1455730942.72178292274475097656,856
299,1455730942.77229666709899902344,848
300,1455730942.82191300392150878906,840
301,1455730942.87229299545288085938,832
302,1455730942.92194867134094238281,824
303,1455730942.972354888916015625,816
304,1455730943.02176380157470703125,808
305,1455730943.07224512100219726562,800
306,1455730943.12174630165100097656,792
307,1455730943.17238640785217285156,784
308,1455730943.22198748588562011719,776
309,1455730943.2724742889404296875,768
310,1455730943.32202649116516113281,760
311,1455730943.37170815467834472656,752
312,1455730943.42227840423583984375,744
313,1455730943.4715423583984375,744
314,1455730943.52219939231872558594,736
315,1455730943.57156848907470703125,728
316,1455730943.6221637725830078125,720
317,1455730943.67151904106140136719,720
318,1455730943.72201800346374511719,712
319,1455730943.77256369590759277344,704
320,1455730943.82219576835632324219,704
321,1455730943.87163805961608886719,696
322,1455730943.92198395729064941406,688
323,1455730943.97254419326782226562,688
324,1455730944.0220966339111328125,680
325,1455730944.07180571556091308594,680
326,1455730944.12219667434692382812,672
327,1455730944.17169094085693359375,672
328,1455730944.22206902503967285156,672
329,1455730944.27253365516662597656,664
330,1455730944.32202100753784179688,664
331,1455730944.37245702743530273438,664
332,1455730944.42218518257141113281,656
333,1455730944.47249197959899902344,656
334,1455730944.52210688591003417969,656
335,1455730944.57260489463806152344,656
336,1455730944.62205433845520019531,656
337,1455730944.67256617546081542969,656
338,1455730944.72213625907897949219,656
339,1455730944.77157115936279296875,656
340,1455730944.82204389572143554688,656
341,1455730944.87181115150451660156,656
342,1455730944.92219042778015136719,656
343,1455730944.97162890434265136719,656
344,1455730945.02212977409362792969,656
345,1455730945.07163715362548828125,656
346,1455730945.1220264434814453125,664
347,1455730945.17265367507934570312,664
348,1455730945.22216081619262695312,664
349,1455730945.27251577377319335938,664
350,1455730945.32221555709838867188,672
351,1455730945.37164783477783203125,672
352,1455730945.4222698211669921875,680
353,1455730945.47151970863342285156,680
354,1455730945.52219891548156738281,688
355,1455730945.57175898551940917969,688
356,1455730945.62223768234252929688,696
357,1455730945.67173361778259277344,696
358,1455730945.7220973968505859375,704
359,1455730945.77189564704895019531,712
360,1455730945.82224035263061523438,720
361,1455730945.87186169624328613281,720
362,1455730945.92236757278442382812,728
363,1455730945.9717617034912109375,736
364,1455730946.02234363555908203125,744
365,1455730946.07189822196960449219,744
366,1455730946.12238860130310058594,752
367,1455730946.1718654632568359375,760
368,1455730946.22247195243835449219,768
369,1455730946.27186536788940429688,776
370,1455730946.32246470451354980469,784
371,1455730946.37183618545532226562,792
372,1455730946.42247271537780761719,800
373,1455730946.47192502021789550781,808
374,1455730946.52249765396118164062,816
375,1455730946.57206177711486816406,824
376,1455730946.62242913246154785156,832
377,1455730946.6720600128173828125,840
378,1455730946.72248196601867675781,848
379,1455730946.77214646339416503906,856
380,1455730946.82152867317199707031,864
381,1455730946.87209272384643554688,872
382,1455730946.92148947715759277344,880
383,1455730946.97209978103637695312,888
384,1455730947.02158999443054199219,896
385,1455730947.07204580307006835938,904
386,1455730947.12156653404235839844,912
387,1455730947.17187237739562988281,920
388,1455730947.22236609458923339844,928
389,1455730947.2717494964599609375,936
390,1455730947.32222890853881835938,944
391,1455730947.37158107757568359375,952
392,1455730947.42206072807312011719,960
393,1455730947.47247600555419921875,968
394,1455730947.52186179161071777344,976
395,1455730947.572330474853515625,984
396,1455730947.621715545654296875,992
397,1455730947.6722927093505859375,1000
398,1455730947.72154998779296875,1008
399,1455730947.77224183082580566406,1016
400,1455730947.82173013687133789062,1024
401,1455730947.87231206893920898438,1032
402,1455730947.92174315452575683594,1032
403,1455730947.97213983535766601562,1040
404,1455730948.02185487747192382812,1048
405,1455730948.07216787338256835938,1056
406,1455730948.12171077728271484375,1064
407,1455730948.17204999923706054688,1064
408,1455730948.22264885902404785156,1072
409,1455730948.27207064628601074219,1080
410,1455730948.32165837287902832031,1080
411,1455730948.37217092514038085938,1088
412,1455730948.42153406143188476562,1096
413,1455730948.47222185134887695312,1096
414,1455730948.52167367935180664062,1104
415,1455730948.57228255271911621094,1104
416,1455730948.62178778648376464844,1112
417,1455730948.67255377769470214844,1112
418,1455730948.72210454940795898438,1112
419,1455730948.77161741256713867188,1120
420,1455730948.82202386856079101562,1120
421,1455730948.87228059768676757812,1120
422,1455730948.9219188690185546875,1128
423,1455730948.97229766845703125,1128
424,1455730949.0218830108642578125,1128
425,1455730949.07222270965576171875,1128
426,1455730949.12176680564880371094,1128
427,1455730949.17229485511779785156,1128
428,1455730949.22164440155029296875,1128
429,1455730949.27215647697448730469,1128
430,1455730949.32146573066711425781,1128
431,1455730949.372005462646484375,1128
432,1455730949.42249846458435058594,1128
433,1455730949.47206544876098632812,1128
434,1455730949.52242994308471679688,1128
435,1455730949.57211065292358398438,1128
436,1455730949.62248659133911132812,1120
437,1455730949.67207431793212890625,1120
438,1455730949.72246813774108886719,1120
439,1455730949.77192354202270507812,1120
440,1455730949.82257509231567382812,1112
441,1455730949.8719081878662109375,1112
442,1455730949.92251992225646972656,1104
443,1455730949.97198009490966796875,1104
444,1455730950.02262091636657714844,1096
445,1455730950.07214999198913574219,1096
446,1455730950.12261986732482910156,1088
447,1455730950.17216515541076660156,1080
448,1455730950.22246885299682617188,1080
449,1455730950.27210664749145507812,1072
450,1455730950.32239484786987304688,1064
451,1455730950.37191319465637207031,1064
452,1455730950.422382354736328125,1056
453,1455730950.47191357612609863281,1048
454,1455730950.52244710922241210938,1040
455,1455730950.57203769683837890625,1040
456,1455730950.62242150306701660156,1032
457,1455730950.67182374000549316406,1024
458,1455730950.72233486175537109375,1016
459,1455730950.77176570892333984375,1008
460,1455730950.82231664657592773438,1000
461,1455730950.87181711196899414062,992
462,1455730950.92242312431335449219,984
463,1455730950.9719562530517578125,976
464,1455730951.02249503135681152344,968
465,1455730951.0720062255859375,960
466,1455730951.12234425544738769531,952
467,1455730951.17194914817810058594,944
468,1455730951.22230696678161621094,936
469,1455730951.27195072174072265625,928
470,1455730951.32225060462951660156,920
471,1455730951.37183141708374023438,912
472,1455730951.42232489585876464844,904
473,1455730951.47166728973388671875,896
474,1455730951.52221441268920898438,888
475,1455730951.57167220115661621094,880
476,1455730951.62218999862670898438,872
477,1455730951.67156052589416503906,864
478,1455730951.72223234176635742188,856
479,1455730951.77177929878234863281,848
480,1455730951.82223963737487792969,840
481,1455730951.87178802490234375,832
482,1455730951.92236876487731933594,824
483,1455730951.97171640396118164062,816
484,1455730952.02227663993835449219,808
485,1455730952.07198095321655273438,800
486,1455730952.12235045433044433594,792
487,1455730952.17207026481628417969,784
488,1455730952.22241997718811035156,776
489,1455730952.27206635475158691406,768
490,1455730952.32237911224365234375,760
491,1455730952.37188863754272460938,752
492,1455730952.422420501708984375,744
493,1455730952.47184467315673828125,744
494,1455730952.52237367630004882812,736
495,1455730952.57185816764831542969,728
496,1455730952.62254738807678222656,720
497,1455730952.67192006111145019531,720
498,1455730952.72240400314331054688,712
499,1455730952.77196455001831054688,704
