id, time (s), size (bits)
0,1455730927.77341890335083007812,712
1,1455730927.88368964195251464844,720
2,1455730927.88604021072387695312,720
3,1455730927.923480987548828125,728
4,1455730927.973876953125,736
5,1455730928.02343082427978515625,744
6,1455730928.07396960258483886719,744
7,1455730928.12431836128234863281,752
8,1455730928.17411637306213378906,760
9,1455730928.22432303428649902344,768
10,1455730928.27307534217834472656,776
11,1455730928.32354664802551269531,784
12,1455730928.37724137306213378906,792
13,1455730928.42390584945678710938,800
14,1455730928.47327494621276855469,808
15,1455730928.52349996566772460938,816
16,1455730928.57370805740356445312,824
17,1455730928.62338542938232421875,832
18,1455730928.67374634742736816406,840
19,1455730928.72327756881713867188,848
20,1455730928.77353239059448242188,856
21,1455730928.82408165931701660156,864
22,1455730928.87371730804443359375,872
23,1455730928.92339491844177246094,880
24,1455730928.97400021553039550781,888
25,1455730929.02346205711364746094,896
26,1455730929.07324457168579101562,904
27,1455730929.12379288673400878906,912
28,1455730929.17340874671936035156,920
29,1455730929.2238788604736328125,928
30,1455730929.27354168891906738281,936
31,1455730929.32302260398864746094,944
32,1455730929.37367773056030273438,952
33,1455730929.42335295677185058594,960
34,1455730929.473720550537109375,968
35,1455730929.52333402633666992188,976
36,1455730929.57387399673461914062,984
37,1455730929.62349104881286621094,992
38,1455730929.67399883270263671875,1000
39,1455730929.7236480712890625,1008
40,1455730929.77316808700561523438,1016
41,1455730929.82373595237731933594,1024
42,1455730929.87328052520751953125,1032
43,1455730929.92368865013122558594,1040
44,1455730929.97341585159301757812,1040
45,1455730930.02390313148498535156,1048
46,1455730930.07355093955993652344,1056
47,1455730930.12298798561096191406,1064
48,1455730930.17362880706787109375,1064
49,1455730930.22309589385986328125,1072
50,1455730930.27378726005554199219,1080
51,1455730930.32326006889343261719,1080
52,1455730930.37380504608154296875,1088
53,1455730930.42342686653137207031,1096
54,1455730930.47388052940368652344,1096
55,1455730930.5234889984130859375,1104
56,1455730930.57397890090942382812,1104
57,1455730930.62362122535705566406,1112
58,1455730930.6729984283447265625,1112
59,1455730930.72363710403442382812,1112
60,1455730930.77322864532470703125,1120
61,1455730930.82366156578063964844,1120
62,1455730930.87334966659545898438,1120
63,1455730930.92364239692687988281,1128
64,1455730930.973194122314453125,1128
65,1455730931.02400922775268554688,1128
66,1455730931.07360410690307617188,1128
67,1455730931.12400364875793457031,1128
68,1455730931.17363572120666503906,1128
69,1455730931.22296905517578125,1128
70,1455730931.27329683303833007812,1128
71,1455730931.32397389411926269531,1128
72,1455730931.37360620498657226562,1128
73,1455730931.42315912246704101562,1128
74,1455730931.4736385345458984375,1128
75,1455730931.52312541007995605469,1128
76,1455730931.57351922988891601562,1128
77,1455730931.62409448623657226562,1120
78,1455730931.67367219924926757812,1120
79,1455730931.72405791282653808594,1120
80,1455730931.77367258071899414062,1120
81,1455730931.82396721839904785156,1112
82,1455730931.87354302406311035156,1112
83,1455730931.92383861541748046875,1104
84,1455730931.97345876693725585938,1104
85,1455730932.02398514747619628906,1096
86,1455730932.07354950904846191406,1096
87,1455730932.12398838996887207031,1088
88,1455730932.17346096038818359375,1080
89,1455730932.22395777702331542969,1080
90,1455730932.27365565299987792969,1072
91,1455730932.32302355766296386719,1064
92,1455730932.37354207038879394531,1064
93,1455730932.42408967018127441406,1056
94,1455730932.47346186637878417969,1048
95,1455730932.52410650253295898438,1040
96,1455730932.57366204261779785156,1040
97,1455730932.62295246124267578125,1032
98,1455730932.67347431182861328125,1024
99,1455730932.72391366958618164062,1016
100,1455730932.77346944808959960938,1008
101,1455730932.82381486892700195312,1000
102,1455730932.87348103523254394531,992
103,1455730932.92389082908630371094,984
104,1455730932.97356581687927246094,976
105,1455730933.02299571037292480469,968
106,1455730933.0733814239501953125,960
107,1455730933.1239070892333984375,952
108,1455730933.17336511611938476562,944
109,1455730933.22384333610534667969,936
110,1455730933.27321267127990722656,928
111,1455730933.32392477989196777344,920
112,1455730933.37343692779541015625,912
113,1455730933.42386269569396972656,904
114,1455730933.47328829765319824219,896
115,1455730933.52372431755065917969,888
116,1455730933.57319140434265136719,880
117,1455730933.62367463111877441406,872
118,1455730933.67328023910522460938,864
119,1455730933.72366285324096679688,856
120,1455730933.77319574356079101562,848
121,1455730933.82368755340576171875,840
122,1455730933.87307667732238769531,832
123,1455730933.92345690727233886719,824
124,1455730933.97381639480590820312,816
125,1455730934.02329683303833007812,808
126,1455730934.07365179061889648438,800
127,1455730934.12329339981079101562,792
128,1455730934.17364645004272460938,784
129,1455730934.2237758636474609375,776
130,1455730934.27319216728210449219,768
131,1455730934.3236541748046875,760
132,1455730934.37298369407653808594,752
133,1455730934.42336344718933105469,744
134,1455730934.47387957572937011719,744
135,1455730934.5232410430908203125,736
136,1455730934.57385563850402832031,728
137,1455730934.6232318878173828125,720
138,1455730934.67369437217712402344,720
139,1455730934.72311139106750488281,712
140,1455730934.77360248565673828125,704
141,1455730934.82393431663513183594,704
142,1455730934.87331843376159667969,696
143,1455730934.92376446723937988281,688
144,1455730934.97327303886413574219,688
145,1455730935.02397251129150390625,680
146,1455730935.07341980934143066406,680
147,1455730935.12396073341369628906,672
148,1455730935.17346143722534179688,672
149,1455730935.22403621673583984375,672
150,1455730935.27342915534973144531,664
151,1455730935.32380604743957519531,664
152,1455730935.37353849411010742188,664
153,1455730935.42297887802124023438,656
154,1455730935.47369360923767089844,656
155,1455730935.52297377586364746094,656
156,1455730935.57353997230529785156,656
157,1455730935.623928070068359375,656
158,1455730935.67350888252258300781,656
159,1455730935.72392296791076660156,656
160,1455730935.77339315414428710938,656
161,1455730935.82389879226684570312,656
162,1455730935.87336874008178710938,656
163,1455730935.9239253997802734375,656
164,1455730935.9733028411865234375,656
165,1455730936.0238971710205078125,656
166,1455730936.07322216033935546875,656
167,1455730936.12386441230773925781,664
168,1455730936.17335772514343261719,664
169,1455730936.22368073463439941406,664
170,1455730936.27339029312133789062,664
171,1455730936.32373714447021484375,672
172,1455730936.37329912185668945312,672
173,1455730936.42358088493347167969,680
174,1455730936.47406291961669921875,680
175,1455730936.523456573486328125,688
176,1455730936.5739288330078125,688
177,1455730936.62344408035278320312,696
178,1455730936.67375469207763671875,704
179,1455730936.7233734130859375,704
180,1455730936.77389574050903320312,712
181,1455730936.82346057891845703125,720
182,1455730936.87382078170776367188,720
183,1455730936.92341542243957519531,728
184,1455730936.97380995750427246094,736
185,1455730937.02327799797058105469,744
186,1455730937.07368063926696777344,744
187,1455730937.12295770645141601562,752
188,1455730937.17357850074768066406,760
189,1455730937.22392868995666503906,768
190,1455730937.27341389656066894531,776
191,1455730937.32384252548217773438,784
192,1455730937.37346005439758300781,792
193,1455730937.42378258705139160156,800
194,1455730937.47330117225646972656,808
195,1455730937.52381920814514160156,816
196,1455730937.57312679290771484375,824
197,1455730937.62378430366516113281,832
198,1455730937.67325186729431152344,840
199,1455730937.72376608848571777344,848
200,1455730937.77316761016845703125,856
201,1455730937.8236541748046875,864
202,1455730937.87295246124267578125,872
203,1455730937.92340135574340820312,880
204,1455730937.97389459609985351562,888
205,1455730938.02324342727661132812,896
206,1455730938.07404565811157226562,904
207,1455730938.12358069419860839844,912
208,1455730938.17325663566589355469,920
209,1455730938.22365260124206542969,928
210,1455730938.27316427230834960938,936
211,1455730938.32355237007141113281,944
212,1455730938.37344503402709960938,952
213,1455730938.4238071441650390625,960
214,1455730938.47319912910461425781,968
215,1455730938.52383756637573242188,976
216,1455730938.57315111160278320312,984
217,1455730938.6236724853515625,992
218,1455730938.67310404777526855469,1000
219,1455730938.7236080169677734375,1008
220,1455730938.77304410934448242188,1016
221,1455730938.82358527183532714844,1024
222,1455730938.87304592132568359375,1032
223,1455730938.92340826988220214844,1040
224,1455730938.97392892837524414062,1040
225,1455730939.02328228950500488281,1048
226,1455730939.07378554344177246094,1056
227,1455730939.12312555313110351562,1064
228,1455730939.17366933822631835938,1064
229,1455730939.22300028800964355469,1072
230,1455730939.27351284027099609375,1080
231,1455730939.32399296760559082031,1080
232,1455730939.373493194580078125,1088
233,1455730939.42298769950866699219,1096
234,1455730939.47336816787719726562,1096
235,1455730939.52400135993957519531,1104
236,1455730939.57344102859497070312,1104
237,1455730939.62395000457763671875,1112
238,1455730939.673431396484375,1112
239,1455730939.7240142822265625,1112
240,1455730939.77345728874206542969,1120
241,1455730939.82382655143737792969,1120
242,1455730939.87346887588500976562,1120
243,1455730939.92375111579895019531,1128
244,1455730939.97337126731872558594,1128
245,1455730940.02385473251342773438,1128
246,1455730940.07338762283325195312,1128
247,1455730940.12383103370666503906,1128
248,1455730940.17344570159912109375,1128
249,1455730940.22395110130310058594,1128
250,1455730940.27331399917602539062,1128
251,1455730940.32382607460021972656,1128
252,1455730940.37326288223266601562,1128
253,1455730940.42372035980224609375,1128
254,1455730940.47304248809814453125,1128
255,1455730940.5236873626708984375,1128
256,1455730940.57296586036682128906,1128
257,1455730940.62346363067626953125,1120
258,1455730940.67381811141967773438,1120
259,1455730940.72321224212646484375,1120
260,1455730940.77390122413635253906,1120
261,1455730940.82319521903991699219,1112
262,1455730940.87374711036682128906,1112
263,1455730940.92319989204406738281,1104
264,1455730940.97378325462341308594,1104
265,1455730941.02317929267883300781,1096
266,1455730941.07369256019592285156,1096
267,1455730941.12304091453552246094,1088
268,1455730941.17341446876525878906,1080
269,1455730941.22392630577087402344,1080
270,1455730941.27328586578369140625,1072
271,1455730941.32381391525268554688,1064
272,1455730941.37329816818237304688,1064
273,1455730941.42384481430053710938,1056
274,1455730941.47330880165100097656,1048
275,1455730941.52392935752868652344,1040
276,1455730941.57340145111083984375,1040
277,1455730941.62379026412963867188,1032
278,1455730941.67339062690734863281,1024
279,1455730941.72377061843872070312,1016
280,1455730941.77330088615417480469,1008
281,1455730941.82366013526916503906,1000
282,1455730941.87321591377258300781,992
283,1455730941.92355871200561523438,984
284,1455730941.97402524948120117188,976
285,1455730942.02340245246887207031,968
286,1455730942.07389140129089355469,960
287,1455730942.12348151206970214844,952
288,1455730942.17378950119018554688,944
289,1455730942.22339916229248046875,936
290,1455730942.2739162445068359375,928
291,1455730942.32336640357971191406,920
292,1455730942.37386155128479003906,912
293,1455730942.42343878746032714844,904
294,1455730942.47382283210754394531,896
295,1455730942.52321100234985351562,888
296,1455730942.57371973991394042969,880
297,1455730942.62299442291259765625,872
298,1455730942.67360210418701171875,864
299,1455730942.72399830818176269531,856
300,1455730942.7735157012939453125,848
301,1455730942.82390308380126953125,840
302,1455730942.87341570854187011719,832
303,1455730942.923801422119140625,824
304,1455730942.97321987152099609375,816
305,1455730943.0238494873046875,808
306,1455730943.07315397262573242188,800
307,1455730943.12387180328369140625,792
308,1455730943.17335677146911621094,784
309,1455730943.22388911247253417969,776
310,1455730943.27346086502075195312,768
311,1455730943.32414555549621582031,760
312,1455730943.37376999855041503906,752
313,1455730943.42333865165710449219,744
314,1455730943.47393083572387695312,744
315,1455730943.52351498603820800781,736
316,1455730943.57301926612854003906,728
317,1455730943.62353658676147460938,720
318,1455730943.67308664321899414062,720
319,1455730943.72352766990661621094,712
320,1455730943.77305817604064941406,704
321,1455730943.82347249984741210938,704
322,1455730943.87294054031372070312,696
323,1455730943.92355012893676757812,688
324,1455730943.97390723228454589844,688
325,1455730944.0234851837158203125,680
326,1455730944.0738506317138671875,680
327,1455730944.12346434593200683594,672
328,1455730944.17379713058471679688,672
329,1455730944.22328996658325195312,672
330,1455730944.27378582954406738281,664
331,1455730944.3229999542236328125,664
332,1455730944.37379527091979980469,664
333,1455730944.42404937744140625,656
334,1455730944.47350239753723144531,656
335,1455730944.52402710914611816406,656
336,1455730944.57362198829650878906,656
337,1455730944.62400174140930175781,656
338,1455730944.67356586456298828125,656
339,1455730944.72398829460144042969,656
340,1455730944.77337622642517089844,656
341,1455730944.82398843765258789062,656
342,1455730944.873386383056640625,656
343,1455730944.92385077476501464844,656
344,1455730944.97323918342590332031,656
345,1455730945.02389812469482421875,656
346,1455730945.07323145866394042969,656
347,1455730945.12384629249572753906,664
348,1455730945.17331862449645996094,664
349,1455730945.22367715835571289062,664
350,1455730945.27338266372680664062,664
351,1455730945.32375860214233398438,672
352,1455730945.37336325645446777344,672
353,1455730945.4237499237060546875,680
354,1455730945.4732227325439453125,680
355,1455730945.52375745773315429688,688
356,1455730945.57310581207275390625,688
357,1455730945.62362313270568847656,696
358,1455730945.67295241355895996094,704
359,1455730945.72367930412292480469,704
360,1455730945.77298736572265625,712
361,1455730945.82354760169982910156,720
362,1455730945.87394094467163085938,720
363,1455730945.923580169677734375,728
364,1455730945.97393774986267089844,736
365,1455730946.02341055870056152344,744
366,1455730946.07390761375427246094,744
367,1455730946.12345528602600097656,752
368,1455730946.17314553260803222656,760
369,1455730946.22354388236999511719,768
370,1455730946.2729434967041015625,776
371,1455730946.32331585884094238281,784
372,1455730946.37388491630554199219,792
373,1455730946.42335867881774902344,800
374,1455730946.4738636016845703125,808
375,1455730946.52331066131591796875,816
376,1455730946.57366824150085449219,824
377,1455730946.62323021888732910156,832
378,1455730946.67364192008972167969,840
379,1455730946.72333097457885742188,848
380,1455730946.77386045455932617188,856
381,1455730946.82333135604858398438,864
382,1455730946.87376737594604492188,872
383,1455730946.9234104156494140625,880
384,1455730946.97391033172607421875,888
385,1455730947.02336549758911132812,896
386,1455730947.07387018203735351562,904
387,1455730947.12330460548400878906,912
388,1455730947.17374897003173828125,920
389,1455730947.22317790985107421875,928
390,1455730947.27365446090698242188,936
391,1455730947.32303404808044433594,944
392,1455730947.37380075454711914062,952
393,1455730947.42334008216857910156,960
394,1455730947.4736995697021484375,968
395,1455730947.52321648597717285156,976
396,1455730947.5735607147216796875,984
397,1455730947.62305450439453125,992
398,1455730947.67339539527893066406,1000
399,1455730947.72403025627136230469,1008
400,1455730947.77343058586120605469,1016
401,1455730947.82396388053894042969,1024
402,1455730947.87351942062377929688,1032
403,1455730947.92380785942077636719,1040
404,1455730947.97333550453186035156,1040
405,1455730948.0238246917724609375,1048
406,1455730948.07324457168579101562,1056
407,1455730948.12369942665100097656,1064
408,1455730948.17317557334899902344,1064
409,1455730948.22356748580932617188,1072
410,1455730948.27310585975646972656,1080
411,1455730948.32354688644409179688,1080
412,1455730948.37392735481262207031,1088
413,1455730948.42354679107666015625,1096
414,1455730948.47402048110961914062,1096
415,1455730948.52363109588623046875,1104
416,1455730948.57395434379577636719,1104
417,1455730948.62359189987182617188,1112
418,1455730948.67296147346496582031,1112
419,1455730948.72353982925415039062,1112
420,1455730948.772975921630859375,1120
421,1455730948.82334160804748535156,1120
422,1455730948.87386798858642578125,1120
423,1455730948.9233608245849609375,1128
424,1455730948.97383046150207519531,1128
425,1455730949.02319574356079101562,1128
426,1455730949.07376146316528320312,1128
427,1455730949.12321805953979492188,1128
428,1455730949.17364358901977539062,1128
429,1455730949.22300958633422851562,1128
430,1455730949.2733001708984375,1128
431,1455730949.32386040687561035156,1128
432,1455730949.37341356277465820312,1128
433,1455730949.42298603057861328125,1128
434,1455730949.47343134880065917969,1128
435,1455730949.52418446540832519531,1128
436,1455730949.57368564605712890625,1128
437,1455730949.62307763099670410156,1120
438,1455730949.67346024513244628906,1120
439,1455730949.7238445281982421875,1120
440,1455730949.77349233627319335938,1120
441,1455730949.82385587692260742188,1112
442,1455730949.87340950965881347656,1112
443,1455730949.9237041473388671875,1104
444,1455730949.97334361076354980469,1104
445,1455730950.02366614341735839844,1096
446,1455730950.0740814208984375,1096
447,1455730950.12354683876037597656,1088
448,1455730950.17383646965026855469,1080
449,1455730950.22342133522033691406,1080
450,1455730950.27390623092651367188,1072
451,1455730950.32350611686706542969,1064
452,1455730950.37386250495910644531,1064
453,1455730950.42358064651489257812,1056
454,1455730950.47302865982055664062,1048
455,1455730950.52346920967102050781,1040
456,1455730950.57395648956298828125,1040
457,1455730950.62335276603698730469,1032
458,1455730950.67379736900329589844,1024
459,1455730950.72322607040405273438,1016
460,1455730950.7739810943603515625,1008
461,1455730950.82344603538513183594,1000
462,1455730950.87393903732299804688,992
463,1455730950.92347431182861328125,984
464,1455730950.97394537925720214844,976
465,1455730951.02335596084594726562,968
466,1455730951.07383203506469726562,960
467,1455730951.12341547012329101562,952
468,1455730951.17372083663940429688,944
469,1455730951.22343015670776367188,936
470,1455730951.27391958236694335938,928
471,1455730951.32346367835998535156,920
472,1455730951.37392926216125488281,912
473,1455730951.42350935935974121094,904
474,1455730951.47390437126159667969,896
475,1455730951.5232601165771484375,888
476,1455730951.57384467124938964844,880
477,1455730951.62324833869934082031,872
478,1455730951.67377901077270507812,864
479,1455730951.72328996658325195312,856
480,1455730951.7739353179931640625,848
481,1455730951.82340931892395019531,840
482,1455730951.87388014793395996094,832
483,1455730951.92336821556091308594,824
484,1455730951.97376465797424316406,816
485,1455730952.02328658103942871094,808
486,1455730952.07366156578063964844,800
487,1455730952.12335705757141113281,792
488,1455730952.17368960380554199219,784
489,1455730952.22317576408386230469,776
490,1455730952.27368187904357910156,768
491,1455730952.32412457466125488281,760
492,1455730952.3736705780029296875,752
493,1455730952.42302846908569335938,744
494,1455730952.47354531288146972656,744
495,1455730952.522975921630859375,736
496,1455730952.57356047630310058594,728
497,1455730952.62295675277709960938,720
498,1455730952.673435211181640625,720
499,1455730952.72390007972717285156,712
