id, time (s), size (bits)
0,1455730932.21789789199829101562,1080
1,1455730932.26810383796691894531,1072
2,1455730932.31870484352111816406,1072
3,1455730932.36826992034912109375,1064
4,1455730932.41860485076904296875,1056
5,1455730932.46820569038391113281,1048
6,1455730932.51854991912841796875,1040
7,1455730932.56856036186218261719,1040
8,1455730932.61795568466186523438,1032
9,1455730932.66841077804565429688,1024
10,1455730932.71809697151184082031,1016
11,1455730932.76861071586608886719,1008
12,1455730932.81837415695190429688,1000
13,1455730932.867763519287109375,992
14,1455730932.91845798492431640625,984
15,1455730932.96800994873046875,976
16,1455730933.01852107048034667969,968
17,1455730933.06825971603393554688,960
18,1455730933.11773657798767089844,952
19,1455730933.16836786270141601562,944
20,1455730933.21774244308471679688,936
21,1455730933.26841902732849121094,928
22,1455730933.31798100471496582031,920
23,1455730933.36866927146911621094,912
24,1455730933.41827344894409179688,904
25,1455730933.46877431869506835938,896
26,1455730933.5183811187744140625,888
27,1455730933.56774282455444335938,880
28,1455730933.61833524703979492188,872
29,1455730933.66867685317993164062,864
30,1455730933.71829438209533691406,856
31,1455730933.768795013427734375,848
32,1455730933.81843256950378417969,840
33,1455730933.86796665191650390625,832
34,1455730933.91845560073852539062,824
35,1455730933.96806740760803222656,816
36,1455730934.01855158805847167969,808
37,1455730934.06805896759033203125,800
38,1455730934.1185131072998046875,792
39,1455730934.16804647445678710938,784
40,1455730934.21853518486022949219,776
41,1455730934.26818895339965820312,768
42,1455730934.31875014305114746094,760
43,1455730934.36817765235900878906,752
44,1455730934.418743133544921875,752
45,1455730934.46820735931396484375,744
46,1455730934.51776909828186035156,736
47,1455730934.5681514739990234375,728
48,1455730934.61883068084716796875,720
49,1455730934.66827154159545898438,720
50,1455730934.71888113021850585938,712
51,1455730934.76822519302368164062,704
52,1455730934.81867313385009765625,704
53,1455730934.86826825141906738281,696
54,1455730934.91865062713623046875,688
55,1455730934.96815252304077148438,688
56,1455730935.01852941513061523438,680
57,1455730935.06801342964172363281,680
58,1455730935.11849951744079589844,672
59,1455730935.16786932945251464844,672
60,1455730935.21849083900451660156,672
61,1455730935.26799154281616210938,664
62,1455730935.31856942176818847656,664
63,1455730935.36777615547180175781,664
64,1455730935.41842889785766601562,656
65,1455730935.468135833740234375,656
66,1455730935.51872897148132324219,656
67,1455730935.56813025474548339844,656
68,1455730935.61868643760681152344,656
69,1455730935.66818666458129882812,656
70,1455730935.718578338623046875,656
71,1455730935.7681121826171875,656
72,1455730935.8186511993408203125,656
73,1455730935.86822009086608886719,656
74,1455730935.91861200332641601562,656
75,1455730935.9690532684326171875,656
76,1455730936.01854801177978515625,656
77,1455730936.06803059577941894531,656
78,1455730936.11850833892822265625,656
79,1455730936.16778326034545898438,664
80,1455730936.21840834617614746094,664
81,1455730936.26780819892883300781,664
82,1455730936.31851959228515625,672
83,1455730936.36778736114501953125,672
84,1455730936.41844987869262695312,680
85,1455730936.46793627738952636719,680
86,1455730936.51841092109680175781,688
87,1455730936.56783318519592285156,688
88,1455730936.61818766593933105469,696
89,1455730936.66869878768920898438,696
90,1455730936.71828913688659667969,704
91,1455730936.76801824569702148438,712
92,1455730936.8185577392578125,712
93,1455730936.86809468269348144531,720
94,1455730936.9185924530029296875,728
95,1455730936.96816015243530273438,736
96,1455730937.01864576339721679688,744
97,1455730937.06796288490295410156,744
98,1455730937.11856937408447265625,752
99,1455730937.1678104400634765625,760
100,1455730937.21849036216735839844,768
101,1455730937.2679424285888671875,776
102,1455730937.31868624687194824219,784
103,1455730937.36821699142456054688,792
104,1455730937.41886997222900390625,800
105,1455730937.46830248832702636719,808
106,1455730937.51877093315124511719,816
107,1455730937.56824707984924316406,824
108,1455730937.61873102188110351562,832
109,1455730937.66842913627624511719,840
110,1455730937.71791219711303710938,848
111,1455730937.76841974258422851562,856
112,1455730937.8179473876953125,864
113,1455730937.86851000785827636719,872
114,1455730937.91802740097045898438,880
115,1455730937.96840405464172363281,888
116,1455730938.01805543899536132812,896
117,1455730938.06848478317260742188,904
118,1455730938.118160247802734375,912
119,1455730938.1686077117919921875,920
120,1455730938.21820688247680664062,928
121,1455730938.26861047744750976562,936
122,1455730938.31810021400451660156,944
123,1455730938.36856412887573242188,952
124,1455730938.41803741455078125,960
125,1455730938.46878457069396972656,968
126,1455730938.51811122894287109375,976
127,1455730938.56875371932983398438,984
128,1455730938.61825990676879882812,992
129,1455730938.6684551239013671875,1000
130,1455730938.71797657012939453125,1008
131,1455730938.76857686042785644531,1016
132,1455730938.81814694404602050781,1024
133,1455730938.8686046600341796875,1032
134,1455730938.91839265823364257812,1032
135,1455730938.96780490875244140625,1040
136,1455730939.01844620704650878906,1048
137,1455730939.06779193878173828125,1056
138,1455730939.11838221549987792969,1064
139,1455730939.16778135299682617188,1064
140,1455730939.21837210655212402344,1072
141,1455730939.2680301666259765625,1080
142,1455730939.31860661506652832031,1080
143,1455730939.36830306053161621094,1088
144,1455730939.41868138313293457031,1096
145,1455730939.46827673912048339844,1096
146,1455730939.51870942115783691406,1104
147,1455730939.56816244125366210938,1104
148,1455730939.6186237335205078125,1112
149,1455730939.66810655593872070312,1112
150,1455730939.71851181983947753906,1112
151,1455730939.76785898208618164062,1120
152,1455730939.81866812705993652344,1120
153,1455730939.86810088157653808594,1120
154,1455730939.918621063232421875,1128
155,1455730939.96803927421569824219,1128
156,1455730940.01853609085083007812,1128
157,1455730940.067951202392578125,1128
158,1455730940.11851143836975097656,1128
159,1455730940.16788959503173828125,1128
160,1455730940.21833777427673339844,1128
161,1455730940.26814413070678710938,1128
162,1455730940.31867432594299316406,1128
163,1455730940.36823320388793945312,1128
164,1455730940.41860437393188476562,1128
165,1455730940.46820545196533203125,1128
166,1455730940.51856565475463867188,1128
167,1455730940.56812882423400878906,1128
168,1455730940.6186237335205078125,1128
169,1455730940.66799950599670410156,1120
170,1455730940.71846079826354980469,1120
171,1455730940.76882100105285644531,1120
172,1455730940.81847023963928222656,1112
173,1455730940.86876416206359863281,1112
174,1455730940.91831183433532714844,1104
175,1455730940.96863007545471191406,1104
176,1455730941.018207550048828125,1096
177,1455730941.068737030029296875,1096
178,1455730941.11815190315246582031,1088
179,1455730941.16863560676574707031,1088
180,1455730941.21808624267578125,1080
181,1455730941.26871204376220703125,1072
182,1455730941.31839680671691894531,1072
183,1455730941.36887311935424804688,1064
184,1455730941.41841030120849609375,1056
185,1455730941.46795177459716796875,1048
186,1455730941.51840114593505859375,1040
187,1455730941.56777739524841308594,1040
188,1455730941.61821103096008300781,1032
189,1455730941.6686496734619140625,1024
190,1455730941.71826672554016113281,1016
191,1455730941.76865816116333007812,1008
192,1455730941.81831669807434082031,1000
193,1455730941.86876416206359863281,992
194,1455730941.91844582557678222656,984
195,1455730941.96796846389770507812,976
196,1455730942.01832675933837890625,968
197,1455730942.06792616844177246094,960
198,1455730942.11840343475341796875,952
199,1455730942.16788911819458007812,944
200,1455730942.2183666229248046875,936
201,1455730942.26801013946533203125,928
202,1455730942.31855058670043945312,920
203,1455730942.36794900894165039062,912
204,1455730942.41849756240844726562,904
205,1455730942.46796011924743652344,896
206,1455730942.51856541633605957031,888
207,1455730942.56805825233459472656,880
208,1455730942.61862921714782714844,872
209,1455730942.66813588142395019531,864
210,1455730942.7187976837158203125,856
211,1455730942.76815581321716308594,848
212,1455730942.81877088546752929688,840
213,1455730942.86825823783874511719,832
214,1455730942.91864609718322753906,824
215,1455730942.96824932098388671875,816
216,1455730943.01871085166931152344,808
217,1455730943.06817603111267089844,800
218,1455730943.11862587928771972656,792
219,1455730943.16822195053100585938,784
220,1455730943.2185535430908203125,776
221,1455730943.26822948455810546875,768
222,1455730943.31880950927734375,760
223,1455730943.36828708648681640625,752
224,1455730943.41774725914001464844,752
225,1455730943.46819329261779785156,744
226,1455730943.51775383949279785156,736
227,1455730943.568119049072265625,728
228,1455730943.61880135536193847656,720
229,1455730943.66820693016052246094,720
230,1455730943.71877765655517578125,712
231,1455730943.76823687553405761719,704
232,1455730943.8188018798828125,704
233,1455730943.86839556694030761719,696
234,1455730943.91769075393676757812,688
235,1455730943.96816921234130859375,688
236,1455730944.01861071586608886719,680
237,1455730944.06827712059020996094,680
238,1455730944.11865758895874023438,672
239,1455730944.16825318336486816406,672
240,1455730944.21858429908752441406,672
241,1455730944.2681064605712890625,664
242,1455730944.31876254081726074219,664
243,1455730944.36801648139953613281,664
244,1455730944.41866159439086914062,656
245,1455730944.46811079978942871094,656
246,1455730944.518695831298828125,656
247,1455730944.56809735298156738281,656
248,1455730944.61868619918823242188,656
249,1455730944.66822195053100585938,656
250,1455730944.71851778030395507812,656
251,1455730944.76816153526306152344,656
252,1455730944.81868052482604980469,656
253,1455730944.8683414459228515625,656
254,1455730944.91870665550231933594,656
255,1455730944.96828985214233398438,656
256,1455730945.01867961883544921875,656
257,1455730945.06822133064270019531,656
258,1455730945.11860799789428710938,656
259,1455730945.16807055473327636719,664
260,1455730945.21853303909301757812,664
261,1455730945.26799917221069335938,664
262,1455730945.31878304481506347656,672
263,1455730945.36822652816772460938,672
264,1455730945.41875004768371582031,680
265,1455730945.46822667121887207031,680
266,1455730945.51872563362121582031,688
267,1455730945.56811571121215820312,688
268,1455730945.61858534812927246094,696
269,1455730945.66821980476379394531,696
270,1455730945.71866679191589355469,704
271,1455730945.76836133003234863281,712
272,1455730945.81776499748229980469,712
273,1455730945.86826491355895996094,720
274,1455730945.91868662834167480469,728
275,1455730945.96822714805603027344,736
276,1455730946.01872420310974121094,744
277,1455730946.06808257102966308594,744
278,1455730946.11857652664184570312,752
279,1455730946.16785907745361328125,760
280,1455730946.21854877471923828125,768
281,1455730946.26808786392211914062,776
282,1455730946.31866908073425292969,784
283,1455730946.36813402175903320312,792
284,1455730946.41863894462585449219,800
285,1455730946.46814036369323730469,808
286,1455730946.51848554611206054688,816
287,1455730946.56812000274658203125,824
288,1455730946.61858439445495605469,832
289,1455730946.66815423965454101562,840
290,1455730946.71858000755310058594,848
291,1455730946.76812195777893066406,856
292,1455730946.81863713264465332031,864
293,1455730946.86803984642028808594,872
294,1455730946.91855359077453613281,880
295,1455730946.96802639961242675781,888
296,1455730947.01867532730102539062,896
297,1455730947.06842899322509765625,904
298,1455730947.11787748336791992188,912
299,1455730947.16836404800415039062,920
300,1455730947.21783661842346191406,928
301,1455730947.26827836036682128906,936
302,1455730947.31783413887023925781,944
303,1455730947.36824202537536621094,952
304,1455730947.41863203048706054688,960
305,1455730947.46836328506469726562,968
306,1455730947.51777577400207519531,976
307,1455730947.56838917732238769531,984
308,1455730947.61771345138549804688,992
309,1455730947.66833138465881347656,1000
310,1455730947.71776652336120605469,1008
311,1455730947.76841688156127929688,1016
312,1455730947.81797504425048828125,1024
313,1455730947.86837029457092285156,1032
314,1455730947.91814208030700683594,1032
315,1455730947.96853494644165039062,1040
316,1455730948.01809191703796386719,1048
317,1455730948.06857585906982421875,1056
318,1455730948.11793661117553710938,1064
319,1455730948.16846489906311035156,1064
320,1455730948.21800470352172851562,1072
321,1455730948.26843881607055664062,1080
322,1455730948.31790280342102050781,1080
323,1455730948.36851048469543457031,1088
324,1455730948.4178829193115234375,1096
325,1455730948.46839046478271484375,1096
326,1455730948.51780223846435546875,1104
327,1455730948.56826925277709960938,1104
328,1455730948.61869192123413085938,1112
329,1455730948.66834592819213867188,1112
330,1455730948.71775460243225097656,1112
331,1455730948.76820993423461914062,1120
332,1455730948.81777739524841308594,1120
333,1455730948.86826491355895996094,1120
334,1455730948.91769576072692871094,1128
335,1455730948.96807527542114257812,1128
336,1455730949.0186786651611328125,1128
337,1455730949.068103790283203125,1128
338,1455730949.11865592002868652344,1128
339,1455730949.1681880950927734375,1128
340,1455730949.21849489212036132812,1128
341,1455730949.26819252967834472656,1128
342,1455730949.31877970695495605469,1128
343,1455730949.36845803260803222656,1128
344,1455730949.41777157783508300781,1128
345,1455730949.46838831901550292969,1128
346,1455730949.51781821250915527344,1128
347,1455730949.56839418411254882812,1128
348,1455730949.61875844001770019531,1128
349,1455730949.66816282272338867188,1120
350,1455730949.71881961822509765625,1120
351,1455730949.76814556121826171875,1120
352,1455730949.8188018798828125,1112
353,1455730949.86823701858520507812,1112
354,1455730949.91875696182250976562,1104
355,1455730949.96823072433471679688,1104
356,1455730950.01875209808349609375,1096
357,1455730950.06816911697387695312,1096
358,1455730950.11852788925170898438,1088
359,1455730950.16809749603271484375,1088
360,1455730950.21847295761108398438,1080
361,1455730950.26809716224670410156,1072
362,1455730950.31858873367309570312,1072
363,1455730950.36805486679077148438,1064
364,1455730950.41855525970458984375,1056
365,1455730950.46811795234680175781,1048
366,1455730950.51850962638854980469,1040
367,1455730950.56799483299255371094,1040
368,1455730950.6186046600341796875,1032
369,1455730950.66818904876708984375,1024
370,1455730950.71860146522521972656,1016
371,1455730950.76819396018981933594,1008
372,1455730950.8189411163330078125,1000
373,1455730950.868541717529296875,992
374,1455730950.91808009147644042969,984
375,1455730950.96858763694763183594,976
376,1455730951.01807665824890136719,968
377,1455730951.06881785392761230469,960
378,1455730951.11831140518188476562,952
379,1455730951.16783380508422851562,944
380,1455730951.21816658973693847656,936
381,1455730951.26889657974243164062,928
382,1455730951.31848597526550292969,920
383,1455730951.36795282363891601562,912
384,1455730951.4184741973876953125,904
385,1455730951.46792125701904296875,896
386,1455730951.51844096183776855469,888
387,1455730951.56790447235107421875,880
388,1455730951.61837124824523925781,872
389,1455730951.66872954368591308594,864
390,1455730951.71838212013244628906,856
391,1455730951.7677974700927734375,848
392,1455730951.81832051277160644531,840
393,1455730951.86872363090515136719,832
394,1455730951.9181079864501953125,824
395,1455730951.96855425834655761719,816
396,1455730952.01793313026428222656,808
397,1455730952.06857919692993164062,800
398,1455730952.11785602569580078125,792
399,1455730952.16857290267944335938,784
400,1455730952.21806693077087402344,776
401,1455730952.26859021186828613281,768
402,1455730952.31803631782531738281,760
403,1455730952.36848306655883789062,752
404,1455730952.41805887222290039062,752
405,1455730952.46845936775207519531,744
406,1455730952.51806807518005371094,736
407,1455730952.56845045089721679688,728
408,1455730952.61890840530395507812,720
409,1455730952.668407440185546875,720
410,1455730952.71787285804748535156,712
411,1455730952.7683086395263671875,704
412,1455730952.8177051544189453125,704
413,1455730952.86847138404846191406,696
414,1455730952.91811060905456542969,688
415,1455730952.96776151657104492188,688
416,1455730953.01825833320617675781,680
417,1455730953.06890797615051269531,680
418,1455730953.11836075782775878906,672
419,1455730953.16883087158203125,672
420,1455730953.21830391883850097656,672
421,1455730953.26779890060424804688,664
422,1455730953.31849265098571777344,664
423,1455730953.36783766746520996094,664
424,1455730953.41861462593078613281,656
425,1455730953.46808624267578125,656
426,1455730953.51856064796447753906,656
427,1455730953.56806182861328125,656
428,1455730953.61860823631286621094,656
429,1455730953.66804170608520507812,656
430,1455730953.71831941604614257812,656
431,1455730953.76801800727844238281,656
432,1455730953.818553924560546875,656
433,1455730953.86823320388793945312,656
434,1455730953.91860294342041015625,656
435,1455730953.96820330619812011719,656
436,1455730954.01855993270874023438,656
437,1455730954.06807780265808105469,656
438,1455730954.11847162246704101562,656
439,1455730954.16774797439575195312,664
440,1455730954.21834826469421386719,664
441,1455730954.26779913902282714844,664
442,1455730954.31851840019226074219,672
443,1455730954.367748260498046875,672
444,1455730954.41833782196044921875,680
445,1455730954.46875524520874023438,680
446,1455730954.51819777488708496094,688
447,1455730954.56872892379760742188,688
448,1455730954.61818790435791015625,696
449,1455730954.66773748397827148438,696
450,1455730954.718112945556640625,704
451,1455730954.76871371269226074219,712
452,1455730954.81808972358703613281,712
453,1455730954.868686676025390625,720
454,1455730954.91809058189392089844,728
455,1455730954.9686145782470703125,736
456,1455730955.01811742782592773438,744
457,1455730955.06858754158020019531,744
458,1455730955.11828160285949707031,752
459,1455730955.16866397857666015625,760
460,1455730955.21824908256530761719,768
461,1455730955.26879072189331054688,776
462,1455730955.31838822364807128906,784
463,1455730955.36874079704284667969,792
464,1455730955.418277740478515625,800
465,1455730955.46880006790161132812,808
466,1455730955.51811766624450683594,816
467,1455730955.56874680519104003906,824
468,1455730955.61818337440490722656,832
469,1455730955.66870522499084472656,840
470,1455730955.71814131736755371094,848
471,1455730955.76868915557861328125,856
472,1455730955.81809186935424804688,864
473,1455730955.86858129501342773438,872
474,1455730955.91801762580871582031,880
475,1455730955.96842861175537109375,888
476,1455730956.01803612709045410156,896
477,1455730956.06851458549499511719,904
478,1455730956.11793041229248046875,912
479,1455730956.16843724250793457031,920
480,1455730956.21789646148681640625,928
481,1455730956.26833128929138183594,936
482,1455730956.31892633438110351562,944
483,1455730956.36840558052062988281,952
484,1455730956.41874051094055175781,960
485,1455730956.46838545799255371094,968
486,1455730956.51875233650207519531,976
487,1455730956.56838726997375488281,984
488,1455730956.61883401870727539062,992
489,1455730956.6684627532958984375,1000
490,1455730956.71771311759948730469,1008
491,1455730956.76836681365966796875,1016
492,1455730956.81773233413696289062,1024
493,1455730956.86815094947814941406,1032
494,1455730956.91866087913513183594,1032
495,1455730956.968135833740234375,1040
496,1455730957.01861858367919921875,1048
497,1455730957.06798696517944335938,1056
498,1455730957.11845707893371582031,1064
499,1455730957.16783022880554199219,1064
500,1455730957.21833539009094238281,1072
