id, time (s), size (bits)
0,1455730928.96559762954711914062,96
1,1455730929.03995442390441894531,96
2,1455730929.0654144287109375,96
3,1455730929.11591553688049316406,96
4,1455730929.16519474983215332031,96
5,1455730929.21570491790771484375,96
6,1455730929.26612448692321777344,96
7,1455730929.31550478935241699219,96
8,1455730929.36560726165771484375,96
9,1455730929.41530561447143554688,96
10,1455730929.46621799468994140625,96
11,1455730929.51582264900207519531,96
12,1455730929.56538510322570800781,96
13,1455730929.61598229408264160156,96
14,1455730929.66559100151062011719,96
15,1455730929.71614670753479003906,96
16,1455730929.76571154594421386719,96
17,1455730929.81559658050537109375,96
18,1455730929.865100860595703125,96
19,1455730929.91575360298156738281,96
20,1455730929.96516585350036621094,96
21,1455730930.01577281951904296875,96
22,1455730930.06509947776794433594,96
23,1455730930.11581707000732421875,96
24,1455730930.16537523269653320312,96
25,1455730930.21583986282348632812,96
26,1455730930.26555919647216796875,96
27,1455730930.31601977348327636719,96
28,1455730930.36569118499755859375,96
29,1455730930.41510772705078125,96
30,1455730930.46601510047912597656,96
31,1455730930.51552605628967285156,96
32,1455730930.56612634658813476562,96
33,1455730930.61579203605651855469,96
34,1455730930.66526246070861816406,96
35,1455730930.71588754653930664062,96
36,1455730930.76540350914001464844,96
37,1455730930.81604838371276855469,96
38,1455730930.86557507514953613281,96
39,1455730930.91616654396057128906,96
40,1455730930.96567440032958984375,96
41,1455730931.01630449295043945312,96
42,1455730931.06585717201232910156,96
43,1455730931.11515688896179199219,96
44,1455730931.16589212417602539062,96
45,1455730931.21540927886962890625,96
46,1455730931.26608157157897949219,96
47,1455730931.31556081771850585938,96
48,1455730931.36617970466613769531,96
49,1455730931.4156436920166015625,96
50,1455730931.46626448631286621094,96
51,1455730931.51573467254638671875,96
52,1455730931.56614160537719726562,96
53,1455730931.61577057838439941406,96
54,1455730931.66531777381896972656,96
55,1455730931.71584558486938476562,96
56,1455730931.76531672477722167969,96
57,1455730931.81586980819702148438,96
58,1455730931.86539340019226074219,96
59,1455730931.91613698005676269531,96
60,1455730931.96553397178649902344,96
61,1455730932.01605296134948730469,96
62,1455730932.06573891639709472656,96
63,1455730932.116123199462890625,96
64,1455730932.16569924354553222656,96
65,1455730932.2153682708740234375,96
66,1455730932.26598072052001953125,96
67,1455730932.31536602973937988281,96
68,1455730932.36596965789794921875,96
69,1455730932.415493011474609375,96
70,1455730932.46587061882019042969,96
71,1455730932.51545882225036621094,96
72,1455730932.56587624549865722656,96
73,1455730932.6154346466064453125,96
74,1455730932.66574120521545410156,96
75,1455730932.71626138687133789062,96
76,1455730932.76577591896057128906,96
77,1455730932.81631302833557128906,96
78,1455730932.86581492424011230469,96
79,1455730932.91512894630432128906,96
80,1455730932.96568655967712402344,96
81,1455730933.01610302925109863281,96
82,1455730933.06575059890747070312,96
83,1455730933.11613178253173828125,96
84,1455730933.16578197479248046875,96
85,1455730933.21517324447631835938,96
86,1455730933.26566362380981445312,96
87,1455730933.31603932380676269531,96
88,1455730933.36552405357360839844,96
89,1455730933.41615819931030273438,96
90,1455730933.46546840667724609375,96
91,1455730933.5160198211669921875,96
92,1455730933.5654087066650390625,96
93,1455730933.61603307723999023438,96
94,1455730933.66550183296203613281,96
95,1455730933.71589064598083496094,96
96,1455730933.7653446197509765625,96
97,1455730933.81591320037841796875,96
98,1455730933.86557602882385253906,96
99,1455730933.91603732109069824219,96
100,1455730933.96557879447937011719,96
101,1455730934.01607060432434082031,96
102,1455730934.06570267677307128906,96
103,1455730934.1161746978759765625,96
104,1455730934.1658611297607421875,96
105,1455730934.2153472900390625,96
106,1455730934.26580095291137695312,96
107,1455730934.315196990966796875,96
108,1455730934.36564302444458007812,96
109,1455730934.41616368293762207031,96
110,1455730934.46557378768920898438,96
111,1455730934.51632761955261230469,96
112,1455730934.56588387489318847656,96
113,1455730934.61532807350158691406,96
114,1455730934.66575574874877929688,96
115,1455730934.71612238883972167969,96
116,1455730934.76572418212890625,96
117,1455730934.8160572052001953125,96
118,1455730934.8656749725341796875,96
119,1455730934.91618299484252929688,96
120,1455730934.965732574462890625,96
121,1455730935.01618099212646484375,96
122,1455730935.06571912765502929688,96
123,1455730935.11610364913940429688,96
124,1455730935.16552186012268066406,96
125,1455730935.21607661247253417969,96
126,1455730935.26556468009948730469,96
127,1455730935.31616258621215820312,96
128,1455730935.36559057235717773438,96
129,1455730935.41565537452697753906,96
130,1455730935.46607613563537597656,96
131,1455730935.51557326316833496094,96
132,1455730935.56598258018493652344,96
133,1455730935.61539459228515625,96
134,1455730935.66585564613342285156,96
135,1455730935.71520543098449707031,96
136,1455730935.76592516899108886719,96
137,1455730935.81520318984985351562,96
138,1455730935.86590909957885742188,96
139,1455730935.9153041839599609375,96
140,1455730935.96595025062561035156,96
141,1455730936.0153598785400390625,96
142,1455730936.06572771072387695312,96
143,1455730936.11523962020874023438,96
144,1455730936.16560029983520507812,96
145,1455730936.21518111228942871094,96
146,1455730936.26567316055297851562,96
147,1455730936.31612062454223632812,96
148,1455730936.36546683311462402344,96
149,1455730936.41595745086669921875,96
150,1455730936.46545743942260742188,96
151,1455730936.51600742340087890625,96
152,1455730936.56555247306823730469,96
153,1455730936.61593556404113769531,96
154,1455730936.665538787841796875,96
155,1455730936.7159023284912109375,96
156,1455730936.76542568206787109375,96
157,1455730936.81585812568664550781,96
158,1455730936.86535167694091796875,96
159,1455730936.9157505035400390625,96
160,1455730936.96610331535339355469,96
161,1455730937.01568269729614257812,96
162,1455730937.06598949432373046875,96
163,1455730937.11568665504455566406,96
164,1455730937.16611790657043457031,96
165,1455730937.21568918228149414062,96
166,1455730937.26613831520080566406,96
167,1455730937.315647125244140625,96
168,1455730937.36606860160827636719,96
169,1455730937.41554307937622070312,96
170,1455730937.465114593505859375,96
171,1455730937.51542568206787109375,96
172,1455730937.5659542083740234375,96
173,1455730937.61535048484802246094,96
174,1455730937.66580843925476074219,96
175,1455730937.71519565582275390625,96
176,1455730937.76578426361083984375,96
177,1455730937.81617617607116699219,96
178,1455730937.865680694580078125,96
179,1455730937.91540980339050292969,96
180,1455730937.96581625938415527344,96
181,1455730938.01544833183288574219,96
182,1455730938.06597495079040527344,96
183,1455730938.11555743217468261719,96
184,1455730938.16603589057922363281,96
185,1455730938.21553564071655273438,96
186,1455730938.26599001884460449219,96
187,1455730938.31537961959838867188,96
188,1455730938.3659954071044921875,96
189,1455730938.415477752685546875,96
190,1455730938.46600031852722167969,96
191,1455730938.51540303230285644531,96
192,1455730938.56594061851501464844,96
193,1455730938.61535286903381347656,96
194,1455730938.665771484375,96
195,1455730938.71513462066650390625,96
196,1455730938.76564741134643554688,96
197,1455730938.81514787673950195312,96
198,1455730938.86564970016479492188,96
199,1455730938.916233062744140625,96
200,1455730938.96575307846069335938,96
201,1455730939.01629304885864257812,96
202,1455730939.06568765640258789062,96
203,1455730939.11619329452514648438,96
204,1455730939.16562223434448242188,96
205,1455730939.21602416038513183594,96
206,1455730939.26579260826110839844,96
207,1455730939.31515097618103027344,96
208,1455730939.3658123016357421875,96
209,1455730939.41515803337097167969,96
210,1455730939.46574306488037109375,96
211,1455730939.51617217063903808594,96
212,1455730939.56575870513916015625,96
213,1455730939.61510872840881347656,96
214,1455730939.66545176506042480469,96
215,1455730939.71600222587585449219,96
216,1455730939.7653331756591796875,96
217,1455730939.81596469879150390625,96
218,1455730939.86544752120971679688,96
219,1455730939.91591358184814453125,96
220,1455730939.96534609794616699219,96
221,1455730940.01594591140747070312,96
222,1455730940.0654354095458984375,96
223,1455730940.11583948135375976562,96
224,1455730940.16537547111511230469,96
225,1455730940.21575236320495605469,96
226,1455730940.26534032821655273438,96
227,1455730940.31573724746704101562,96
228,1455730940.36621594429016113281,96
229,1455730940.41561627388000488281,96
230,1455730940.46615242958068847656,96
231,1455730940.51565670967102050781,96
232,1455730940.56599736213684082031,96
233,1455730940.61555767059326171875,96
234,1455730940.66583347320556640625,96
235,1455730940.71536898612976074219,96
236,1455730940.76588559150695800781,96
237,1455730940.8152561187744140625,96
238,1455730940.86581182479858398438,96
239,1455730940.91529750823974609375,96
240,1455730940.96572947502136230469,96
241,1455730941.01508212089538574219,96
242,1455730941.06559419631958007812,96
243,1455730941.11598658561706542969,96
244,1455730941.16551280021667480469,96
245,1455730941.21586585044860839844,96
246,1455730941.26555156707763671875,96
247,1455730941.31598353385925292969,96
248,1455730941.36551356315612792969,96
249,1455730941.41584563255310058594,96
250,1455730941.46516251564025878906,96
251,1455730941.51580643653869628906,96
252,1455730941.56611037254333496094,96
253,1455730941.61563277244567871094,96
254,1455730941.66603446006774902344,96
255,1455730941.71559953689575195312,96
256,1455730941.76606130599975585938,96
257,1455730941.81552577018737792969,96
258,1455730941.86603879928588867188,96
259,1455730941.91616678237915039062,96
260,1455730941.96561193466186523438,96
261,1455730942.01604461669921875,96
262,1455730942.06555724143981933594,96
263,1455730942.11596560478210449219,96
264,1455730942.16566109657287597656,96
265,1455730942.21608495712280273438,96
266,1455730942.26564788818359375,96
267,1455730942.31601786613464355469,96
268,1455730942.36540913581848144531,96
269,1455730942.41585779190063476562,96
270,1455730942.46516728401184082031,96
271,1455730942.51572012901306152344,96
272,1455730942.56605458259582519531,96
273,1455730942.61568403244018554688,96
274,1455730942.66610980033874511719,96
275,1455730942.71556258201599121094,96
276,1455730942.76606607437133789062,96
277,1455730942.81545162200927734375,96
278,1455730942.86597609519958496094,96
279,1455730942.91537809371948242188,96
280,1455730942.96589446067810058594,96
281,1455730943.01527309417724609375,96
282,1455730943.06587624549865722656,96
283,1455730943.11531138420104980469,96
284,1455730943.16575551033020019531,96
285,1455730943.21514558792114257812,96
286,1455730943.26570606231689453125,96
287,1455730943.31512713432312011719,96
288,1455730943.36562609672546386719,96
289,1455730943.41513705253601074219,96
290,1455730943.46559929847717285156,96
291,1455730943.51615762710571289062,96
292,1455730943.56557011604309082031,96
293,1455730943.61607694625854492188,96
294,1455730943.66554331779479980469,96
295,1455730943.71595668792724609375,96
296,1455730943.76545262336730957031,96
297,1455730943.81588506698608398438,96
298,1455730943.865596771240234375,96
299,1455730943.91595625877380371094,96
300,1455730943.96550059318542480469,96
301,1455730944.01602196693420410156,96
302,1455730944.06550526618957519531,96
303,1455730944.11598753929138183594,96
304,1455730944.1654644012451171875,96
305,1455730944.21602344512939453125,96
306,1455730944.26547312736511230469,96
307,1455730944.31619215011596679688,96
308,1455730944.36564540863037109375,96
309,1455730944.41621327400207519531,96
310,1455730944.46567368507385253906,96
311,1455730944.51636743545532226562,96
312,1455730944.56582498550415039062,96
313,1455730944.61515879631042480469,96
314,1455730944.66574978828430175781,96
315,1455730944.71612620353698730469,96
316,1455730944.76577281951904296875,96
317,1455730944.81610870361328125,96
318,1455730944.86569333076477050781,96
319,1455730944.9161376953125,96
320,1455730944.9656467437744140625,96
321,1455730945.01610326766967773438,96
322,1455730945.06544041633605957031,96
323,1455730945.11598277091979980469,96
324,1455730945.16536068916320800781,96
325,1455730945.21596026420593261719,96
326,1455730945.26537299156188964844,96
327,1455730945.31590414047241210938,96
328,1455730945.3653354644775390625,96
329,1455730945.4157543182373046875,96
330,1455730945.46614241600036621094,96
331,1455730945.51553678512573242188,96
332,1455730945.5661411285400390625,96
333,1455730945.61555266380310058594,96
334,1455730945.66607260704040527344,96
335,1455730945.71546769142150878906,96
336,1455730945.76615929603576660156,96
337,1455730945.81569314002990722656,96
338,1455730945.86527657508850097656,96
339,1455730945.91572976112365722656,96
340,1455730945.96610999107360839844,96
341,1455730946.01579689979553222656,96
342,1455730946.06610846519470214844,96
343,1455730946.11570215225219726562,96
344,1455730946.16508078575134277344,96
345,1455730946.21568131446838378906,96
346,1455730946.26613974571228027344,96
347,1455730946.31561279296875,96
348,1455730946.36599326133728027344,96
349,1455730946.4154949188232421875,96
350,1455730946.46519041061401367188,96
351,1455730946.51573443412780761719,96
352,1455730946.56511259078979492188,96
353,1455730946.61553478240966796875,96
354,1455730946.66605448722839355469,96
355,1455730946.71552944183349609375,96
356,1455730946.7661495208740234375,96
357,1455730946.81568121910095214844,96
358,1455730946.866054534912109375,96
359,1455730946.91572475433349609375,96
360,1455730946.96609830856323242188,96
361,1455730947.0156402587890625,96
362,1455730947.06594562530517578125,96
363,1455730947.11553859710693359375,96
364,1455730947.16588878631591796875,96
365,1455730947.21552801132202148438,96
366,1455730947.26598787307739257812,96
367,1455730947.31539416313171386719,96
368,1455730947.36601948738098144531,96
369,1455730947.4154148101806640625,96
370,1455730947.46590852737426757812,96
371,1455730947.51569461822509765625,96
372,1455730947.56614279747009277344,96
373,1455730947.61557340621948242188,96
374,1455730947.66608524322509765625,96
375,1455730947.7154788970947265625,96
376,1455730947.765918731689453125,96
377,1455730947.8154811859130859375,96
378,1455730947.86589217185974121094,96
379,1455730947.91542363166809082031,96
380,1455730947.96578359603881835938,96
381,1455730948.01522684097290039062,96
382,1455730948.06560778617858886719,96
383,1455730948.1161632537841796875,96
384,1455730948.16562652587890625,96
385,1455730948.21604990959167480469,96
386,1455730948.26563906669616699219,96
387,1455730948.31599545478820800781,96
388,1455730948.36553859710693359375,96
389,1455730948.41585993766784667969,96
390,1455730948.46531414985656738281,96
391,1455730948.51584386825561523438,96
392,1455730948.56534433364868164062,96
393,1455730948.61586833000183105469,96
394,1455730948.66514515876770019531,96
395,1455730948.71568655967712402344,96
396,1455730948.76609587669372558594,96
397,1455730948.81571674346923828125,96
398,1455730948.86508321762084960938,96
399,1455730948.91569089889526367188,96
400,1455730948.96608495712280273438,96
401,1455730949.01566553115844726562,96
402,1455730949.06605744361877441406,96
403,1455730949.11548876762390136719,96
404,1455730949.16604208946228027344,96
405,1455730949.21540021896362304688,96
406,1455730949.26597070693969726562,96
407,1455730949.31537151336669921875,96
408,1455730949.36590695381164550781,96
409,1455730949.41531443595886230469,96
410,1455730949.46585774421691894531,96
411,1455730949.51534891128540039062,96
412,1455730949.56571936607360839844,96
413,1455730949.61543798446655273438,96
414,1455730949.665836334228515625,96
415,1455730949.71543478965759277344,96
416,1455730949.76591229438781738281,96
417,1455730949.81540918350219726562,96
418,1455730949.86587953567504882812,96
419,1455730949.91538953781127929688,96
420,1455730949.96580004692077636719,96
421,1455730950.01527285575866699219,96
422,1455730950.06579828262329101562,96
423,1455730950.11511516571044921875,96
424,1455730950.165599822998046875,96
425,1455730950.21599721908569335938,96
426,1455730950.26568174362182617188,96
427,1455730950.31606078147888183594,96
428,1455730950.36566233634948730469,96
429,1455730950.41614890098571777344,96
430,1455730950.46542882919311523438,96
431,1455730950.51611089706420898438,96
432,1455730950.56549072265625,96
433,1455730950.61601781845092773438,96
434,1455730950.66537141799926757812,96
435,1455730950.71596074104309082031,96
436,1455730950.76535105705261230469,96
437,1455730950.81589341163635253906,96
438,1455730950.86538791656494140625,96
439,1455730950.91574525833129882812,96
440,1455730950.96532487869262695312,96
441,1455730951.01584672927856445312,96
442,1455730951.06535744667053222656,96
443,1455730951.11581397056579589844,96
444,1455730951.16533541679382324219,96
445,1455730951.21578907966613769531,96
446,1455730951.26521039009094238281,96
447,1455730951.31564664840698242188,96
448,1455730951.3659992218017578125,96
449,1455730951.41553664207458496094,96
450,1455730951.46589922904968261719,96
451,1455730951.51543521881103515625,96
452,1455730951.56581974029541015625,96
453,1455730951.61535954475402832031,96
454,1455730951.66572737693786621094,96
455,1455730951.71625351905822753906,96
456,1455730951.76573491096496582031,96
457,1455730951.816150665283203125,96
458,1455730951.86574482917785644531,96
459,1455730951.91616511344909667969,96
460,1455730951.96568536758422851562,96
461,1455730952.01612019538879394531,96
462,1455730952.06560444831848144531,96
463,1455730952.11604237556457519531,96
464,1455730952.16553950309753417969,96
465,1455730952.21596741676330566406,96
466,1455730952.26535344123840332031,96
467,1455730952.31589746475219726562,96
468,1455730952.36516857147216796875,96
469,1455730952.41576743125915527344,96
470,1455730952.46612310409545898438,96
471,1455730952.51572680473327636719,96
472,1455730952.56610536575317382812,96
473,1455730952.61565351486206054688,96
474,1455730952.6660633087158203125,96
475,1455730952.71540331840515136719,96
476,1455730952.76597261428833007812,96
477,1455730952.8154659271240234375,96
478,1455730952.86527037620544433594,96
479,1455730952.91574120521545410156,96
480,1455730952.96627092361450195312,96
481,1455730953.01570534706115722656,96
482,1455730953.06612539291381835938,96
483,1455730953.11557078361511230469,96
484,1455730953.16587042808532714844,96
485,1455730953.21541547775268554688,96
486,1455730953.26588344573974609375,96
487,1455730953.31558728218078613281,96
488,1455730953.36597871780395507812,96
489,1455730953.41550803184509277344,96
490,1455730953.46587491035461425781,96
491,1455730953.51529955863952636719,96
492,1455730953.56573128700256347656,96
493,1455730953.61613035202026367188,96
494,1455730953.66562747955322265625,96
495,1455730953.71599793434143066406,96
496,1455730953.76557326316833496094,96
497,1455730953.81602811813354492188,96
498,1455730953.86569714546203613281,96
499,1455730953.91615080833435058594,96
500,1455730953.96562933921813964844,96
501,1455730954.01609826087951660156,96
502,1455730954.06564044952392578125,96
503,1455730954.11540341377258300781,96
504,1455730954.16573882102966308594,96
505,1455730954.21535491943359375,96
506,1455730954.26586771011352539062,96
507,1455730954.31528973579406738281,96
508,1455730954.36578679084777832031,96
509,1455730954.41521048545837402344,96
510,1455730954.46560001373291015625,96
511,1455730954.51614785194396972656,96
512,1455730954.56577801704406738281,96
513,1455730954.61615729331970214844,96
514,1455730954.66573452949523925781,96
515,1455730954.71612524986267089844,96
516,1455730954.765720367431640625,96
517,1455730954.81613874435424804688,96
