id, time (s), size (bits)
0,1455730931.87915658950805664062,96
1,1455730931.92824339866638183594,96
2,1455730931.97885251045227050781,96
3,1455730932.02863240242004394531,96
4,1455730932.07929062843322753906,96
5,1455730932.12903428077697753906,96
6,1455730932.17869281768798828125,96
7,1455730932.228260040283203125,96
8,1455730932.2791767120361328125,96
9,1455730932.32886147499084472656,96
10,1455730932.378582000732421875,96
11,1455730932.42921233177185058594,96
12,1455730932.47891211509704589844,96
13,1455730932.528835296630859375,96
14,1455730932.57848477363586425781,96
15,1455730932.62920117378234863281,96
16,1455730932.67885303497314453125,96
17,1455730932.72886896133422851562,96
18,1455730932.77858972549438476562,96
19,1455730932.82827258110046386719,96
20,1455730932.87874579429626464844,96
21,1455730932.92840933799743652344,96
22,1455730932.97897505760192871094,96
23,1455730933.02877354621887207031,96
24,1455730933.07845306396484375,96
25,1455730933.12908029556274414062,96
26,1455730933.17895722389221191406,96
27,1455730933.22857546806335449219,96
28,1455730933.27933287620544433594,96
29,1455730933.32885026931762695312,96
30,1455730933.37852025032043457031,96
31,1455730933.42920184135437011719,96
32,1455730933.4789752960205078125,96
33,1455730933.52880215644836425781,96
34,1455730933.57832407951354980469,96
35,1455730933.62915277481079101562,96
36,1455730933.6786937713623046875,96
37,1455730933.72849035263061523438,96
38,1455730933.7791080474853515625,96
39,1455730933.82882142066955566406,96
40,1455730933.87833905220031738281,96
41,1455730933.9291591644287109375,96
42,1455730933.97878193855285644531,96
43,1455730934.02837467193603515625,96
44,1455730934.07918214797973632812,96
45,1455730934.12863445281982421875,96
46,1455730934.17827343940734863281,96
47,1455730934.22894835472106933594,96
48,1455730934.27874803543090820312,96
49,1455730934.32826972007751464844,96
50,1455730934.37890481948852539062,96
51,1455730934.42858076095581054688,96
52,1455730934.47911524772644042969,96
53,1455730934.52890157699584960938,96
54,1455730934.57852005958557128906,96
55,1455730934.62931656837463378906,96
56,1455730934.67885351181030273438,96
57,1455730934.72863125801086425781,96
58,1455730934.77927327156066894531,96
59,1455730934.82897090911865234375,96
60,1455730934.87860870361328125,96
61,1455730934.92923808097839355469,96
62,1455730934.97883319854736328125,96
63,1455730935.02853488922119140625,96
64,1455730935.079349517822265625,96
65,1455730935.12887859344482421875,96
66,1455730935.17842507362365722656,96
67,1455730935.22904562950134277344,96
68,1455730935.27887129783630371094,96
69,1455730935.32853412628173828125,96
70,1455730935.3790607452392578125,96
71,1455730935.42878675460815429688,96
72,1455730935.4793376922607421875,96
73,1455730935.52900528907775878906,96
74,1455730935.57862901687622070312,96
75,1455730935.62938809394836425781,96
76,1455730935.67896795272827148438,96
77,1455730935.72879886627197265625,96
78,1455730935.77842211723327636719,96
79,1455730935.82908153533935546875,96
80,1455730935.87877106666564941406,96
81,1455730935.92819881439208984375,96
82,1455730935.97889757156372070312,96
83,1455730936.02838301658630371094,96
84,1455730936.07918882369995117188,96
85,1455730936.12880015373229980469,96
86,1455730936.17941379547119140625,96
87,1455730936.22903656959533691406,96
88,1455730936.27869272232055664062,96
89,1455730936.32846832275390625,96
90,1455730936.37909984588623046875,96
91,1455730936.42877221107482910156,96
92,1455730936.47928953170776367188,96
93,1455730936.52909564971923828125,96
94,1455730936.5787200927734375,96
95,1455730936.62846803665161132812,96
96,1455730936.67915773391723632812,96
97,1455730936.72867703437805175781,96
98,1455730936.77839994430541992188,96
99,1455730936.82906675338745117188,96
100,1455730936.87861776351928710938,96
101,1455730936.9292354583740234375,96
102,1455730936.97906064987182617188,96
103,1455730937.02881336212158203125,96
104,1455730937.0787334442138671875,96
105,1455730937.12834095954895019531,96
106,1455730937.17895412445068359375,96
107,1455730937.22876095771789550781,96
108,1455730937.27926993370056152344,96
109,1455730937.32907414436340332031,96
110,1455730937.37850260734558105469,96
111,1455730937.42941594123840332031,96
112,1455730937.47894620895385742188,96
113,1455730937.52864122390747070312,96
114,1455730937.57929229736328125,96
115,1455730937.62883687019348144531,96
116,1455730937.67860651016235351562,96
117,1455730937.72921824455261230469,96
118,1455730937.77887129783630371094,96
119,1455730937.82834863662719726562,96
120,1455730937.87917280197143554688,96
121,1455730937.92880940437316894531,96
122,1455730937.97949147224426269531,96
123,1455730938.02908420562744140625,96
124,1455730938.07858109474182128906,96
125,1455730938.12830567359924316406,96
126,1455730938.17889857292175292969,96
127,1455730938.22882533073425292969,96
128,1455730938.27933287620544433594,96
129,1455730938.32855939865112304688,96
130,1455730938.37913346290588378906,96
131,1455730938.4288959503173828125,96
132,1455730938.47827482223510742188,96
133,1455730938.52892518043518066406,96
134,1455730938.578693389892578125,96
135,1455730938.62833428382873535156,96
136,1455730938.67918610572814941406,96
137,1455730938.72872757911682128906,96
138,1455730938.77947497367858886719,96
139,1455730938.828990936279296875,96
140,1455730938.87866687774658203125,96
141,1455730938.9282016754150390625,96
142,1455730938.97876524925231933594,96
143,1455730939.02861881256103515625,96
144,1455730939.07927727699279785156,96
145,1455730939.12913560867309570312,96
146,1455730939.17859053611755371094,96
147,1455730939.22937083244323730469,96
148,1455730939.27889585494995117188,96
149,1455730939.32860994338989257812,96
150,1455730939.379192352294921875,96
151,1455730939.42877817153930664062,96
152,1455730939.47851395606994628906,96
153,1455730939.52906131744384765625,96
154,1455730939.57881283760070800781,96
155,1455730939.62846422195434570312,96
156,1455730939.67923402786254882812,96
157,1455730939.72890734672546386719,96
158,1455730939.77867436408996582031,96
159,1455730939.82828569412231445312,96
160,1455730939.87876129150390625,96
161,1455730939.92841744422912597656,96
162,1455730939.97899556159973144531,96
163,1455730940.02885127067565917969,96
164,1455730940.07846713066101074219,96
165,1455730940.12920975685119628906,96
166,1455730940.17875385284423828125,96
167,1455730940.22838950157165527344,96
168,1455730940.27912950515747070312,96
169,1455730940.32913136482238769531,96
170,1455730940.37877631187438964844,96
171,1455730940.428218841552734375,96
172,1455730940.47892141342163085938,96
173,1455730940.528514862060546875,96
174,1455730940.57950186729431152344,96
175,1455730940.6292057037353515625,96
176,1455730940.67889738082885742188,96
177,1455730940.728534698486328125,96
178,1455730940.779155731201171875,96
179,1455730940.82891345024108886719,96
180,1455730940.87851667404174804688,96
181,1455730940.92926192283630371094,96
182,1455730940.97884249687194824219,96
183,1455730941.02863073348999023438,96
184,1455730941.07933306694030761719,96
185,1455730941.12896704673767089844,96
186,1455730941.17849874496459960938,96
187,1455730941.229167938232421875,96
188,1455730941.27898812294006347656,96
189,1455730941.32858419418334960938,96
190,1455730941.37926506996154785156,96
191,1455730941.42893099784851074219,96
192,1455730941.47867631912231445312,96
193,1455730941.52830004692077636719,96
194,1455730941.57899332046508789062,96
195,1455730941.62869977951049804688,96
196,1455730941.67832827568054199219,96
197,1455730941.72921609878540039062,96
198,1455730941.77883434295654296875,96
199,1455730941.82861757278442382812,96
200,1455730941.87914991378784179688,96
201,1455730941.92884993553161621094,96
202,1455730941.97843408584594726562,96
203,1455730942.02920508384704589844,96
204,1455730942.07888245582580566406,96
205,1455730942.12842512130737304688,96
206,1455730942.17939686775207519531,96
207,1455730942.22901868820190429688,96
208,1455730942.27893853187561035156,96
209,1455730942.32855677604675292969,96
210,1455730942.37929439544677734375,96
211,1455730942.42900037765502929688,96
212,1455730942.47882866859436035156,96
213,1455730942.52856707572937011719,96
214,1455730942.57923817634582519531,96
215,1455730942.62899446487426757812,96
216,1455730942.67856144905090332031,96
217,1455730942.72825741767883300781,96
218,1455730942.77890992164611816406,96
219,1455730942.82870507240295410156,96
220,1455730942.87828588485717773438,96
221,1455730942.92913651466369628906,96
222,1455730942.97871518135070800781,96
223,1455730943.02835035324096679688,96
224,1455730943.07921671867370605469,96
225,1455730943.12868261337280273438,96
226,1455730943.17835974693298339844,96
227,1455730943.22899746894836425781,96
228,1455730943.27885770797729492188,96
229,1455730943.32849526405334472656,96
230,1455730943.37928318977355957031,96
231,1455730943.42893362045288085938,96
232,1455730943.47862339019775390625,96
233,1455730943.52839016914367675781,96
234,1455730943.57899355888366699219,96
235,1455730943.62870073318481445312,96
236,1455730943.67825388908386230469,96
237,1455730943.72902941703796386719,96
238,1455730943.77878808975219726562,96
239,1455730943.82857751846313476562,96
240,1455730943.8792781829833984375,96
241,1455730943.92894101142883300781,96
242,1455730943.97870016098022460938,96
243,1455730944.02828669548034667969,96
244,1455730944.07895493507385253906,96
245,1455730944.12857699394226074219,96
246,1455730944.1794719696044921875,96
247,1455730944.22906017303466796875,96
248,1455730944.27890801429748535156,96
249,1455730944.32857966423034667969,96
250,1455730944.37919735908508300781,96
251,1455730944.42888879776000976562,96
252,1455730944.47832751274108886719,96
253,1455730944.52902054786682128906,96
254,1455730944.57857537269592285156,96
255,1455730944.6294574737548828125,96
256,1455730944.67912149429321289062,96
257,1455730944.72883439064025878906,96
258,1455730944.77858495712280273438,96
259,1455730944.82922887802124023438,96
260,1455730944.87901616096496582031,96
261,1455730944.92870616912841796875,96
262,1455730944.97842860221862792969,96
263,1455730945.02901148796081542969,96
264,1455730945.07895374298095703125,96
265,1455730945.12861084938049316406,96
266,1455730945.17940497398376464844,96
267,1455730945.22898983955383300781,96
268,1455730945.27868962287902832031,96
269,1455730945.32847309112548828125,96
270,1455730945.37912511825561523438,96
271,1455730945.42884588241577148438,96
272,1455730945.47841525077819824219,96
273,1455730945.52919912338256835938,96
274,1455730945.57888174057006835938,96
275,1455730945.62863659858703613281,96
276,1455730945.67835545539855957031,96
277,1455730945.72903680801391601562,96
278,1455730945.77887558937072753906,96
279,1455730945.82834506034851074219,96
280,1455730945.879154205322265625,96
281,1455730945.92880582809448242188,96
282,1455730945.97854399681091308594,96
283,1455730946.02910208702087402344,96
284,1455730946.07934594154357910156,96
285,1455730946.12900114059448242188,96
286,1455730946.178707122802734375,96
287,1455730946.22851014137268066406,96
288,1455730946.27923130989074707031,96
289,1455730946.32898640632629394531,96
290,1455730946.37863588333129882812,96
291,1455730946.42939639091491699219,96
292,1455730946.47906732559204101562,96
293,1455730946.52878212928771972656,96
294,1455730946.57849860191345214844,96
295,1455730946.62923502922058105469,96
296,1455730946.67903828620910644531,96
297,1455730946.72856068611145019531,96
298,1455730946.77841925621032714844,96
299,1455730946.82913136482238769531,96
300,1455730946.87885570526123046875,96
301,1455730946.92832851409912109375,96
302,1455730946.97915124893188476562,96
303,1455730947.02887797355651855469,96
304,1455730947.07858824729919433594,96
305,1455730947.12834978103637695312,96
306,1455730947.17908978462219238281,96
307,1455730947.22904920578002929688,96
308,1455730947.27863574028015136719,96
309,1455730947.3293972015380859375,96
310,1455730947.37894916534423828125,96
311,1455730947.42886137962341308594,96
312,1455730947.47851634025573730469,96
313,1455730947.52913999557495117188,96
314,1455730947.57881402969360351562,96
315,1455730947.62837624549865722656,96
316,1455730947.67922902107238769531,96
317,1455730947.72882890701293945312,96
318,1455730947.7786502838134765625,96
319,1455730947.82929015159606933594,96
320,1455730947.87902045249938964844,96
321,1455730947.9285144805908203125,96
322,1455730947.97914028167724609375,96
323,1455730948.02879977226257324219,96
324,1455730948.07846093177795410156,96
325,1455730948.12926769256591796875,96
326,1455730948.17894339561462402344,96
327,1455730948.22845911979675292969,96
328,1455730948.27909612655639648438,96
329,1455730948.32879543304443359375,96
330,1455730948.37843942642211914062,96
331,1455730948.42908596992492675781,96
332,1455730948.47885775566101074219,96
333,1455730948.52842259407043457031,96
334,1455730948.57920670509338378906,96
335,1455730948.62867236137390136719,96
336,1455730948.67839145660400390625,96
337,1455730948.72901463508605957031,96
338,1455730948.77872943878173828125,96
339,1455730948.8283138275146484375,96
340,1455730948.87894177436828613281,96
341,1455730948.92882108688354492188,96
342,1455730948.97927379608154296875,96
343,1455730949.02893805503845214844,96
344,1455730949.07848095893859863281,96
345,1455730949.12920117378234863281,96
346,1455730949.17885613441467285156,96
347,1455730949.22842049598693847656,96
348,1455730949.27906918525695800781,96
349,1455730949.32855629920959472656,96
350,1455730949.37845587730407714844,96
351,1455730949.42908549308776855469,96
352,1455730949.47887015342712402344,96
353,1455730949.52852678298950195312,96
354,1455730949.57935738563537597656,96
355,1455730949.6288967132568359375,96
356,1455730949.67871356010437011719,96
357,1455730949.72926282882690429688,96
358,1455730949.77886939048767089844,96
359,1455730949.82864785194396972656,96
360,1455730949.87832140922546386719,96
361,1455730949.92909598350524902344,96
362,1455730949.97872853279113769531,96
363,1455730950.02947139739990234375,96
364,1455730950.0789966583251953125,96
365,1455730950.12868237495422363281,96
366,1455730950.17826819419860839844,96
367,1455730950.22886514663696289062,96
368,1455730950.27869057655334472656,96
369,1455730950.32931208610534667969,96
370,1455730950.37898278236389160156,96
371,1455730950.42846512794494628906,96
372,1455730950.47924184799194335938,96
373,1455730950.52889895439147949219,96
374,1455730950.57870650291442871094,96
375,1455730950.62833666801452636719,96
376,1455730950.67907261848449707031,96
377,1455730950.72882986068725585938,96
378,1455730950.778350830078125,96
379,1455730950.82912755012512207031,96
380,1455730950.87860655784606933594,96
381,1455730950.92936158180236816406,96
382,1455730950.97890710830688476562,96
383,1455730951.02874708175659179688,96
384,1455730951.07847070693969726562,96
385,1455730951.12908649444580078125,96
386,1455730951.17892765998840332031,96
387,1455730951.228488922119140625,96
388,1455730951.27828764915466308594,96
389,1455730951.32880282402038574219,96
390,1455730951.37853026390075683594,96
391,1455730951.4291934967041015625,96
392,1455730951.47902894020080566406,96
393,1455730951.52864193916320800781,96
394,1455730951.57934141159057617188,96
395,1455730951.62901568412780761719,96
396,1455730951.67877101898193359375,96
397,1455730951.72843861579895019531,96
398,1455730951.77910399436950683594,96
399,1455730951.82877373695373535156,96
400,1455730951.87846136093139648438,96
401,1455730951.92931461334228515625,96
402,1455730951.97889041900634765625,96
403,1455730952.02847886085510253906,96
404,1455730952.07928872108459472656,96
405,1455730952.12898397445678710938,96
406,1455730952.17868590354919433594,96
407,1455730952.22947239875793457031,96
408,1455730952.27928686141967773438,96
409,1455730952.32886576652526855469,96
410,1455730952.37864732742309570312,96
411,1455730952.42825007438659667969,96
412,1455730952.47892737388610839844,96
413,1455730952.52879476547241210938,96
414,1455730952.57833075523376464844,96
415,1455730952.62917232513427734375,96
416,1455730952.67887139320373535156,96
417,1455730952.72874307632446289062,96
418,1455730952.778392791748046875,96
419,1455730952.82912015914916992188,96
420,1455730952.87870454788208007812,96
421,1455730952.92925024032592773438,96
422,1455730952.97891688346862792969,96
423,1455730953.02840161323547363281,96
424,1455730953.079410552978515625,96
425,1455730953.128925323486328125,96
426,1455730953.17874670028686523438,96
427,1455730953.228290557861328125,96
428,1455730953.27906894683837890625,96
429,1455730953.32874941825866699219,96
430,1455730953.37834787368774414062,96
431,1455730953.42918419837951660156,96
432,1455730953.47875881195068359375,96
433,1455730953.52851390838623046875,96
434,1455730953.57827091217041015625,96
435,1455730953.62914443016052246094,96
436,1455730953.67884349822998046875,96
437,1455730953.72949552536010742188,96
438,1455730953.77901005744934082031,96
439,1455730953.82857203483581542969,96
440,1455730953.87833428382873535156,96
441,1455730953.92900848388671875,96
442,1455730953.97878265380859375,96
443,1455730954.02835559844970703125,96
444,1455730954.07921457290649414062,96
445,1455730954.1287078857421875,96
446,1455730954.17837953567504882812,96
447,1455730954.22908616065979003906,96
448,1455730954.27869343757629394531,96
449,1455730954.32846426963806152344,96
450,1455730954.37908577919006347656,96
451,1455730954.42896914482116699219,96
452,1455730954.47866845130920410156,96
453,1455730954.52943754196166992188,96
454,1455730954.57906246185302734375,96
455,1455730954.62869930267333984375,96
456,1455730954.6783008575439453125,96
457,1455730954.72895860671997070312,96
458,1455730954.77880024909973144531,96
459,1455730954.82845664024353027344,96
460,1455730954.87929606437683105469,96
461,1455730954.92885947227478027344,96
462,1455730954.97852826118469238281,96
463,1455730955.02910017967224121094,96
464,1455730955.07890534400939941406,96
465,1455730955.12851238250732421875,96
466,1455730955.17917370796203613281,96
467,1455730955.22891950607299804688,96
468,1455730955.27859997749328613281,96
469,1455730955.32835817337036132812,96
470,1455730955.37896013259887695312,96
471,1455730955.42870259284973144531,96
472,1455730955.47930145263671875,96
473,1455730955.52899026870727539062,96
474,1455730955.57864594459533691406,96
475,1455730955.62928009033203125,96
476,1455730955.67882585525512695312,96
477,1455730955.72838830947875976562,96
478,1455730955.77927374839782714844,96
479,1455730955.82882571220397949219,96
480,1455730955.878612518310546875,96
481,1455730955.92927384376525878906,96
482,1455730955.97903037071228027344,96
483,1455730956.02863287925720214844,96
484,1455730956.07928538322448730469,96
485,1455730956.12892818450927734375,96
486,1455730956.17847371101379394531,96
487,1455730956.22948193550109863281,96
488,1455730956.27896714210510253906,96
489,1455730956.32874202728271484375,96
490,1455730956.37833261489868164062,96
491,1455730956.42907929420471191406,96
492,1455730956.47875761985778808594,96
493,1455730956.52833533287048339844,96
494,1455730956.57923865318298339844,96
495,1455730956.62872743606567382812,96
496,1455730956.67844843864440917969,96
497,1455730956.72907781600952148438,96
498,1455730956.77890729904174804688,96
499,1455730956.82851958274841308594,96
500,1455730956.87921023368835449219,96
501,1455730956.92887902259826660156,96
502,1455730956.97847247123718261719,96
503,1455730957.02834343910217285156,96
504,1455730957.07894110679626464844,96
505,1455730957.12871122360229492188,96
506,1455730957.17825007438659667969,96
507,1455730957.22905087471008300781,96
508,1455730957.27862405776977539062,96
509,1455730957.32938313484191894531,96
510,1455730957.37901067733764648438,96
511,1455730957.42852997779846191406,96
512,1455730957.47849488258361816406,96
513,1455730957.52889919281005859375,96
514,1455730957.57869768142700195312,96
515,1455730957.629367828369140625,96
516,1455730957.67925906181335449219,96
