id, time (s), size (bits)
0,1455730929.77781748771667480469,96
1,1455730929.82799696922302246094,96
2,1455730929.87750577926635742188,96
3,1455730929.92712068557739257812,96
4,1455730929.97762084007263183594,96
5,1455730930.02724480628967285156,96
6,1455730930.07777285575866699219,96
7,1455730930.12734055519104003906,96
8,1455730930.17698431015014648438,96
9,1455730930.22751092910766601562,96
10,1455730930.27718186378479003906,96
11,1455730930.32784247398376464844,96
12,1455730930.37754535675048828125,96
13,1455730930.42694067955017089844,96
14,1455730930.4775142669677734375,96
15,1455730930.52696371078491210938,96
16,1455730930.57734990119934082031,96
17,1455730930.62709665298461914062,96
18,1455730930.67765283584594726562,96
19,1455730930.72723364830017089844,96
20,1455730930.77771830558776855469,96
21,1455730930.82732987403869628906,96
22,1455730930.87769842147827148438,96
23,1455730930.92723679542541503906,96
24,1455730930.97774076461791992188,96
25,1455730931.02721714973449707031,96
26,1455730931.0769023895263671875,96
27,1455730931.12754750251770019531,96
28,1455730931.17716860771179199219,96
29,1455730931.22758030891418457031,96
30,1455730931.27712202072143554688,96
31,1455730931.32759857177734375,96
32,1455730931.37720704078674316406,96
33,1455730931.4278888702392578125,96
34,1455730931.47733235359191894531,96
35,1455730931.5269527435302734375,96
36,1455730931.57746744155883789062,96
37,1455730931.62719011306762695312,96
38,1455730931.67772579193115234375,96
39,1455730931.72745275497436523438,96
40,1455730931.77692699432373046875,96
41,1455730931.82743430137634277344,96
42,1455730931.87793064117431640625,96
43,1455730931.92741036415100097656,96
44,1455730931.97713065147399902344,96
45,1455730932.02755808830261230469,96
46,1455730932.0771999359130859375,96
47,1455730932.12766718864440917969,96
48,1455730932.17713451385498046875,96
49,1455730932.22756075859069824219,96
50,1455730932.2771244049072265625,96
51,1455730932.32776284217834472656,96
52,1455730932.37717151641845703125,96
53,1455730932.42777872085571289062,96
54,1455730932.47724270820617675781,96
55,1455730932.527950286865234375,96
56,1455730932.57740855216979980469,96
57,1455730932.62798404693603515625,96
58,1455730932.67748045921325683594,96
59,1455730932.72807669639587402344,96
60,1455730932.77755975723266601562,96
61,1455730932.82696366310119628906,96
62,1455730932.87757825851440429688,96
63,1455730932.92695164680480957031,96
64,1455730932.97754740715026855469,96
65,1455730933.02731609344482421875,96
66,1455730933.07801222801208496094,96
67,1455730933.1274738311767578125,96
68,1455730933.1780853271484375,96
69,1455730933.22757673263549804688,96
70,1455730933.27697920799255371094,96
71,1455730933.32753157615661621094,96
72,1455730933.37694239616394042969,96
73,1455730933.42755150794982910156,96
74,1455730933.47792816162109375,96
75,1455730933.52749681472778320312,96
76,1455730933.57684636116027832031,96
77,1455730933.62743306159973144531,96
78,1455730933.677921295166015625,96
79,1455730933.72736763954162597656,96
80,1455730933.77792191505432128906,96
81,1455730933.82737517356872558594,96
82,1455730933.87700772285461425781,96
83,1455730933.9274654388427734375,96
84,1455730933.97811937332153320312,96
85,1455730934.02745389938354492188,96
86,1455730934.07803606986999511719,96
87,1455730934.12753796577453613281,96
88,1455730934.17689919471740722656,96
89,1455730934.22763180732727050781,96
90,1455730934.2772064208984375,96
91,1455730934.32784438133239746094,96
92,1455730934.37724161148071289062,96
93,1455730934.42795205116271972656,96
94,1455730934.47740817070007324219,96
95,1455730934.52784395217895507812,96
96,1455730934.57736849784851074219,96
97,1455730934.62769627571105957031,96
98,1455730934.67729854583740234375,96
99,1455730934.72767877578735351562,96
100,1455730934.77731657028198242188,96
101,1455730934.82779741287231445312,96
102,1455730934.87733721733093261719,96
103,1455730934.92791652679443359375,96
104,1455730934.97760415077209472656,96
105,1455730935.02706265449523925781,96
106,1455730935.07753205299377441406,96
107,1455730935.12702584266662597656,96
108,1455730935.17756247520446777344,96
109,1455730935.22713017463684082031,96
110,1455730935.27755784988403320312,96
111,1455730935.32712984085083007812,96
112,1455730935.37761020660400390625,96
113,1455730935.42707538604736328125,96
114,1455730935.47753429412841796875,96
115,1455730935.52793359756469726562,96
116,1455730935.57752394676208496094,96
117,1455730935.6279392242431640625,96
118,1455730935.67752599716186523438,96
119,1455730935.72784399986267089844,96
120,1455730935.77764225006103515625,96
121,1455730935.82711267471313476562,96
122,1455730935.87765526771545410156,96
123,1455730935.9270839691162109375,96
124,1455730935.97753810882568359375,96
125,1455730936.02709794044494628906,96
126,1455730936.07749915122985839844,96
127,1455730936.12709784507751464844,96
128,1455730936.17759823799133300781,96
129,1455730936.22775101661682128906,96
130,1455730936.27724361419677734375,96
131,1455730936.32778501510620117188,96
132,1455730936.37722659111022949219,96
133,1455730936.42769527435302734375,96
134,1455730936.47727560997009277344,96
135,1455730936.52760481834411621094,96
136,1455730936.57725954055786132812,96
137,1455730936.62758517265319824219,96
138,1455730936.67706918716430664062,96
139,1455730936.72753977775573730469,96
140,1455730936.77703690528869628906,96
141,1455730936.82745075225830078125,96
142,1455730936.87788057327270507812,96
143,1455730936.92751431465148925781,96
144,1455730936.97687292098999023438,96
145,1455730937.02748155593872070312,96
146,1455730937.0769138336181640625,96
147,1455730937.12760019302368164062,96
148,1455730937.17703270912170410156,96
149,1455730937.22755122184753417969,96
150,1455730937.27695798873901367188,96
151,1455730937.327239990234375,96
152,1455730937.37784147262573242188,96
153,1455730937.42710781097412109375,96
154,1455730937.47777700424194335938,96
155,1455730937.52711510658264160156,96
156,1455730937.57760977745056152344,96
157,1455730937.62697315216064453125,96
158,1455730937.67749738693237304688,96
159,1455730937.72794318199157714844,96
160,1455730937.777408599853515625,96
161,1455730937.82689595222473144531,96
162,1455730937.87734389305114746094,96
163,1455730937.92692351341247558594,96
164,1455730937.97739481925964355469,96
165,1455730938.02788233757019042969,96
166,1455730938.0773639678955078125,96
167,1455730938.12791728973388671875,96
168,1455730938.17741131782531738281,96
169,1455730938.22765398025512695312,96
170,1455730938.27736830711364746094,96
171,1455730938.32778477668762207031,96
172,1455730938.37742471694946289062,96
173,1455730938.42778348922729492188,96
174,1455730938.47734999656677246094,96
175,1455730938.52792096138000488281,96
176,1455730938.57746148109436035156,96
177,1455730938.62779378890991210938,96
178,1455730938.67718815803527832031,96
179,1455730938.72787594795227050781,96
180,1455730938.77740168571472167969,96
181,1455730938.82692217826843261719,96
182,1455730938.8772869110107421875,96
183,1455730938.92790842056274414062,96
184,1455730938.97738146781921386719,96
185,1455730939.0278606414794921875,96
186,1455730939.077396392822265625,96
187,1455730939.12779164314270019531,96
188,1455730939.17749452590942382812,96
189,1455730939.22780323028564453125,96
190,1455730939.277423858642578125,96
191,1455730939.32786655426025390625,96
192,1455730939.37738251686096191406,96
193,1455730939.42786765098571777344,96
194,1455730939.47747373580932617188,96
195,1455730939.52782845497131347656,96
196,1455730939.57727193832397460938,96
197,1455730939.62791967391967773438,96
198,1455730939.67743754386901855469,96
199,1455730939.727970123291015625,96
200,1455730939.77743840217590332031,96
201,1455730939.828014373779296875,96
202,1455730939.87745118141174316406,96
203,1455730939.92793035507202148438,96
204,1455730939.97731518745422363281,96
205,1455730940.0276927947998046875,96
206,1455730940.07741403579711914062,96
207,1455730940.12788462638854980469,96
208,1455730940.17758464813232421875,96
209,1455730940.22694730758666992188,96
210,1455730940.27756285667419433594,96
211,1455730940.32692217826843261719,96
212,1455730940.37760162353515625,96
213,1455730940.42694973945617675781,96
214,1455730940.47737288475036621094,96
215,1455730940.52794146537780761719,96
216,1455730940.57740688323974609375,96
217,1455730940.62691617012023925781,96
218,1455730940.67736053466796875,96
219,1455730940.72779536247253417969,96
220,1455730940.77730965614318847656,96
221,1455730940.82792639732360839844,96
222,1455730940.87725949287414550781,96
223,1455730940.92774081230163574219,96
224,1455730940.97736382484436035156,96
225,1455730941.02772378921508789062,96
226,1455730941.07739090919494628906,96
227,1455730941.12782144546508789062,96
228,1455730941.17741942405700683594,96
229,1455730941.22779059410095214844,96
230,1455730941.27746701240539550781,96
231,1455730941.32688832283020019531,96
232,1455730941.37732839584350585938,96
233,1455730941.42792510986328125,96
234,1455730941.47738361358642578125,96
235,1455730941.52783870697021484375,96
236,1455730941.57733869552612304688,96
237,1455730941.62781023979187011719,96
238,1455730941.6772365570068359375,96
239,1455730941.72779226303100585938,96
240,1455730941.77735805511474609375,96
241,1455730941.82780122756958007812,96
242,1455730941.877384185791015625,96
243,1455730941.92775034904479980469,96
244,1455730941.97735953330993652344,96
245,1455730942.02766370773315429688,96
246,1455730942.07733058929443359375,96
247,1455730942.12772488594055175781,96
248,1455730942.17735648155212402344,96
249,1455730942.22778177261352539062,96
250,1455730942.27725887298583984375,96
251,1455730942.32783365249633789062,96
252,1455730942.37723755836486816406,96
253,1455730942.42775249481201171875,96
254,1455730942.47714948654174804688,96
255,1455730942.52771854400634765625,96
256,1455730942.5771999359130859375,96
257,1455730942.62785577774047851562,96
258,1455730942.677295684814453125,96
259,1455730942.72768926620483398438,96
260,1455730942.77733898162841796875,96
261,1455730942.8277873992919921875,96
262,1455730942.8773059844970703125,96
263,1455730942.92778754234313964844,96
264,1455730942.97746396064758300781,96
265,1455730943.02797913551330566406,96
266,1455730943.07762885093688964844,96
267,1455730943.12711238861083984375,96
268,1455730943.17756390571594238281,96
269,1455730943.22717237472534179688,96
270,1455730943.2776355743408203125,96
271,1455730943.32781720161437988281,96
272,1455730943.37722563743591308594,96
273,1455730943.42789196968078613281,96
274,1455730943.47736644744873046875,96
275,1455730943.52790427207946777344,96
276,1455730943.57743763923645019531,96
277,1455730943.62784242630004882812,96
278,1455730943.67745208740234375,96
279,1455730943.72786307334899902344,96
280,1455730943.77747893333435058594,96
281,1455730943.82792878150939941406,96
282,1455730943.87742161750793457031,96
283,1455730943.9279041290283203125,96
284,1455730943.97749853134155273438,96
285,1455730944.02693819999694824219,96
286,1455730944.07731962203979492188,96
287,1455730944.12789416313171386719,96
288,1455730944.17740797996520996094,96
289,1455730944.22694849967956542969,96
290,1455730944.27742648124694824219,96
291,1455730944.32799983024597167969,96
292,1455730944.377445220947265625,96
293,1455730944.42792868614196777344,96
294,1455730944.47740316390991210938,96
295,1455730944.52787256240844726562,96
296,1455730944.57747030258178710938,96
297,1455730944.62792468070983886719,96
298,1455730944.67762017250061035156,96
299,1455730944.72693204879760742188,96
300,1455730944.77749729156494140625,96
301,1455730944.8279972076416015625,96
302,1455730944.87738800048828125,96
303,1455730944.92790746688842773438,96
304,1455730944.97736835479736328125,96
305,1455730945.02794194221496582031,96
306,1455730945.07747507095336914062,96
307,1455730945.12730288505554199219,96
308,1455730945.17790746688842773438,96
309,1455730945.22762417793273925781,96
310,1455730945.27705264091491699219,96
311,1455730945.32758307456970214844,96
312,1455730945.37708640098571777344,96
313,1455730945.42756748199462890625,96
314,1455730945.47713518142700195312,96
315,1455730945.52756834030151367188,96
316,1455730945.57723331451416015625,96
317,1455730945.627681732177734375,96
318,1455730945.6771678924560546875,96
319,1455730945.72765994071960449219,96
320,1455730945.77709794044494628906,96
321,1455730945.82754468917846679688,96
322,1455730945.87689685821533203125,96
323,1455730945.92752027511596679688,96
324,1455730945.97685575485229492188,96
325,1455730946.02755784988403320312,96
326,1455730946.07694387435913085938,96
327,1455730946.12754917144775390625,96
328,1455730946.1769123077392578125,96
329,1455730946.22735738754272460938,96
330,1455730946.27782344818115234375,96
331,1455730946.327243804931640625,96
332,1455730946.37791275978088378906,96
333,1455730946.42738080024719238281,96
334,1455730946.47779798507690429688,96
335,1455730946.52729368209838867188,96
336,1455730946.57788491249084472656,96
337,1455730946.62715697288513183594,96
338,1455730946.67772769927978515625,96
339,1455730946.72718787193298339844,96
340,1455730946.77767729759216308594,96
341,1455730946.82737183570861816406,96
342,1455730946.87771296501159667969,96
343,1455730946.92735910415649414062,96
344,1455730946.97777152061462402344,96
345,1455730947.02739238739013671875,96
346,1455730947.07795262336730957031,96
347,1455730947.12756180763244628906,96
348,1455730947.17794919013977050781,96
349,1455730947.22741174697875976562,96
350,1455730947.27709865570068359375,96
351,1455730947.32745957374572753906,96
352,1455730947.37694597244262695312,96
353,1455730947.42741513252258300781,96
354,1455730947.47791266441345214844,96
355,1455730947.5274295806884765625,96
356,1455730947.57798099517822265625,96
357,1455730947.62741565704345703125,96
358,1455730947.67776036262512207031,96
359,1455730947.72745490074157714844,96
360,1455730947.7769145965576171875,96
361,1455730947.82742547988891601562,96
362,1455730947.8777217864990234375,96
363,1455730947.92731380462646484375,96
364,1455730947.97775769233703613281,96
365,1455730948.02734994888305664062,96
366,1455730948.07782030105590820312,96
367,1455730948.12721586227416992188,96
368,1455730948.17781543731689453125,96
369,1455730948.22725152969360351562,96
370,1455730948.27782917022705078125,96
371,1455730948.32724881172180175781,96
372,1455730948.3777923583984375,96
373,1455730948.42723727226257324219,96
374,1455730948.477802276611328125,96
375,1455730948.52735114097595214844,96
376,1455730948.57778811454772949219,96
377,1455730948.62731218338012695312,96
378,1455730948.67736339569091796875,96
379,1455730948.72790122032165527344,96
380,1455730948.77737092971801757812,96
381,1455730948.82794499397277832031,96
382,1455730948.877227783203125,96
383,1455730948.92791509628295898438,96
384,1455730948.97744846343994140625,96
385,1455730949.02791714668273925781,96
386,1455730949.07755899429321289062,96
387,1455730949.12790894508361816406,96
388,1455730949.17750883102416992188,96
389,1455730949.22788143157958984375,96
390,1455730949.27737355232238769531,96
391,1455730949.3278560638427734375,96
392,1455730949.377384185791015625,96
393,1455730949.42781138420104980469,96
394,1455730949.47722005844116210938,96
395,1455730949.52779293060302734375,96
396,1455730949.57713770866394042969,96
397,1455730949.62768840789794921875,96
398,1455730949.67691826820373535156,96
399,1455730949.72755646705627441406,96
400,1455730949.77698397636413574219,96
401,1455730949.8275318145751953125,96
402,1455730949.87699079513549804688,96
403,1455730949.92748975753784179688,96
404,1455730949.97715282440185546875,96
405,1455730950.02759957313537597656,96
406,1455730950.07708954811096191406,96
407,1455730950.12753272056579589844,96
408,1455730950.17801165580749511719,96
409,1455730950.22745966911315917969,96
410,1455730950.27804064750671386719,96
411,1455730950.32759380340576171875,96
412,1455730950.37715888023376464844,96
413,1455730950.42783713340759277344,96
414,1455730950.47731041908264160156,96
415,1455730950.52788186073303222656,96
416,1455730950.57731485366821289062,96
417,1455730950.6279754638671875,96
418,1455730950.67747211456298828125,96
419,1455730950.72795152664184570312,96
420,1455730950.77743577957153320312,96
421,1455730950.82794260978698730469,96
422,1455730950.87750220298767089844,96
423,1455730950.92688035964965820312,96
424,1455730950.97746825218200683594,96
425,1455730951.02787494659423828125,96
426,1455730951.0776214599609375,96
427,1455730951.12716245651245117188,96
428,1455730951.17780733108520507812,96
429,1455730951.22726130485534667969,96
430,1455730951.27756834030151367188,96
431,1455730951.32717442512512207031,96
432,1455730951.37762141227722167969,96
433,1455730951.42718958854675292969,96
434,1455730951.47760629653930664062,96
435,1455730951.52720522880554199219,96
436,1455730951.57770013809204101562,96
437,1455730951.62717127799987792969,96
438,1455730951.67766022682189941406,96
439,1455730951.72699856758117675781,96
440,1455730951.77764344215393066406,96
441,1455730951.82708144187927246094,96
442,1455730951.87753272056579589844,96
443,1455730951.92691016197204589844,96
444,1455730951.97748398780822753906,96
445,1455730952.02694964408874511719,96
446,1455730952.07746195793151855469,96
447,1455730952.12689042091369628906,96
448,1455730952.17731261253356933594,96
449,1455730952.22782039642333984375,96
450,1455730952.27718472480773925781,96
451,1455730952.32776165008544921875,96
452,1455730952.3770465850830078125,96
453,1455730952.42772793769836425781,96
454,1455730952.4771881103515625,96
455,1455730952.52774524688720703125,96
456,1455730952.57712149620056152344,96
457,1455730952.62754845619201660156,96
458,1455730952.67703652381896972656,96
459,1455730952.72744917869567871094,96
460,1455730952.77722024917602539062,96
461,1455730952.82768368721008300781,96
462,1455730952.87705564498901367188,96
463,1455730952.92757439613342285156,96
464,1455730952.9770298004150390625,96
465,1455730953.02752614021301269531,96
466,1455730953.07695150375366210938,96
467,1455730953.12754726409912109375,96
468,1455730953.17693686485290527344,96
469,1455730953.22758650779724121094,96
470,1455730953.27693772315979003906,96
471,1455730953.32747602462768554688,96
472,1455730953.37791228294372558594,96
473,1455730953.42747068405151367188,96
474,1455730953.47787380218505859375,96
475,1455730953.5273284912109375,96
476,1455730953.57795095443725585938,96
477,1455730953.62729406356811523438,96
478,1455730953.67687678337097167969,96
479,1455730953.72735834121704101562,96
480,1455730953.77797937393188476562,96
481,1455730953.82737326622009277344,96
482,1455730953.87779927253723144531,96
483,1455730953.92716693878173828125,96
484,1455730953.97762346267700195312,96
485,1455730954.02726292610168457031,96
486,1455730954.07773375511169433594,96
487,1455730954.12740302085876464844,96
488,1455730954.17776823043823242188,96
489,1455730954.22730135917663574219,96
490,1455730954.27764344215393066406,96
491,1455730954.32719373703002929688,96
492,1455730954.37766337394714355469,96
493,1455730954.42702484130859375,96
494,1455730954.47760701179504394531,96
495,1455730954.52709484100341796875,96
496,1455730954.57775259017944335938,96
497,1455730954.62714838981628417969,96
498,1455730954.67774915695190429688,96
499,1455730954.72719645500183105469,96
500,1455730954.77769804000854492188,96
501,1455730954.82708907127380371094,96
502,1455730954.87742066383361816406,96
503,1455730954.92714238166809082031,96
504,1455730954.97759222984313964844,96
505,1455730955.02723598480224609375,96
506,1455730955.07772231101989746094,96
507,1455730955.12729763984680175781,96
508,1455730955.17779231071472167969,96
509,1455730955.2273159027099609375,96
510,1455730955.27779483795166015625,96
511,1455730955.32710957527160644531,96
512,1455730955.37776637077331542969,96
513,1455730955.42713689804077148438,96
514,1455730955.47771334648132324219,96
515,1455730955.52718782424926757812,96
516,1455730955.57783031463623046875,96
517,1455730955.62724900245666503906,96
