id, time (s), size (bits)
0,1455730928.83687520027160644531,96
1,1455730928.92029809951782226562,96
2,1455730928.93676853179931640625,96
3,1455730928.98672151565551757812,96
4,1455730929.03650736808776855469,96
5,1455730929.08646893501281738281,96
6,1455730929.13616728782653808594,96
7,1455730929.18695759773254394531,96
8,1455730929.23689866065979003906,96
9,1455730929.28670477867126464844,96
10,1455730929.33658266067504882812,96
11,1455730929.38616418838500976562,96
12,1455730929.43692183494567871094,96
13,1455730929.48645329475402832031,96
14,1455730929.53700470924377441406,96
15,1455730929.58653569221496582031,96
16,1455730929.63692307472229003906,96
17,1455730929.68677449226379394531,96
18,1455730929.73628950119018554688,96
19,1455730929.78689622879028320312,96
20,1455730929.83634424209594726562,96
21,1455730929.88680720329284667969,96
22,1455730929.93631792068481445312,96
23,1455730929.98697638511657714844,96
24,1455730930.036556243896484375,96
25,1455730930.08597230911254882812,96
26,1455730930.13671946525573730469,96
27,1455730930.1861667633056640625,96
28,1455730930.23673558235168457031,96
29,1455730930.28629660606384277344,96
30,1455730930.33612704277038574219,96
31,1455730930.38662409782409667969,96
32,1455730930.43621301651000976562,96
33,1455730930.48680973052978515625,96
34,1455730930.53633952140808105469,96
35,1455730930.58594441413879394531,96
36,1455730930.63643670082092285156,96
37,1455730930.68616175651550292969,96
38,1455730930.73664522171020507812,96
39,1455730930.78619265556335449219,96
40,1455730930.83650469779968261719,96
41,1455730930.88712787628173828125,96
42,1455730930.93671679496765136719,96
43,1455730930.9859409332275390625,96
44,1455730931.03660607337951660156,96
45,1455730931.08594775199890136719,96
46,1455730931.1365299224853515625,96
47,1455730931.1858844757080078125,96
48,1455730931.23652386665344238281,96
49,1455730931.28593897819519042969,96
50,1455730931.33657741546630859375,96
51,1455730931.38603067398071289062,96
52,1455730931.43650794029235839844,96
53,1455730931.48593759536743164062,96
54,1455730931.53645086288452148438,96
55,1455730931.58601284027099609375,96
56,1455730931.63648486137390136719,96
57,1455730931.68600869178771972656,96
58,1455730931.73648619651794433594,96
59,1455730931.78711295127868652344,96
60,1455730931.83671522140502929688,96
61,1455730931.88620400428771972656,96
62,1455730931.93687987327575683594,96
63,1455730931.98628854751586914062,96
64,1455730932.03679943084716796875,96
65,1455730932.08655381202697753906,96
66,1455730932.13705372810363769531,96
67,1455730932.18646335601806640625,96
68,1455730932.23697805404663085938,96
69,1455730932.28652834892272949219,96
70,1455730932.3358554840087890625,96
71,1455730932.38653826713562011719,96
72,1455730932.43587613105773925781,96
73,1455730932.48639369010925292969,96
74,1455730932.5367984771728515625,96
75,1455730932.5863971710205078125,96
76,1455730932.63687252998352050781,96
77,1455730932.6864490509033203125,96
78,1455730932.73683857917785644531,96
79,1455730932.7862834930419921875,96
80,1455730932.83687376976013183594,96
81,1455730932.8861865997314453125,96
82,1455730932.93675756454467773438,96
83,1455730932.98607015609741210938,96
84,1455730933.03677272796630859375,96
85,1455730933.08626627922058105469,96
86,1455730933.13672685623168945312,96
87,1455730933.18615245819091796875,96
88,1455730933.23652124404907226562,96
89,1455730933.28610873222351074219,96
90,1455730933.33652925491333007812,96
91,1455730933.38615775108337402344,96
92,1455730933.43655109405517578125,96
93,1455730933.48705840110778808594,96
94,1455730933.53656721115112304688,96
95,1455730933.58709573745727539062,96
96,1455730933.63644623756408691406,96
97,1455730933.68682622909545898438,96
98,1455730933.7363910675048828125,96
99,1455730933.78611612319946289062,96
100,1455730933.83657312393188476562,96
101,1455730933.8859157562255859375,96
102,1455730933.93648838996887207031,96
103,1455730933.98688936233520507812,96
104,1455730934.03654360771179199219,96
105,1455730934.08589720726013183594,96
106,1455730934.13625502586364746094,96
107,1455730934.18682909011840820312,96
108,1455730934.2362766265869140625,96
109,1455730934.28688359260559082031,96
110,1455730934.33635234832763671875,96
111,1455730934.3869533538818359375,96
112,1455730934.43649005889892578125,96
113,1455730934.48702645301818847656,96
114,1455730934.53644895553588867188,96
115,1455730934.586822509765625,96
116,1455730934.63626980781555175781,96
117,1455730934.68676066398620605469,96
118,1455730934.73630928993225097656,96
119,1455730934.78667879104614257812,96
120,1455730934.83627247810363769531,96
121,1455730934.88665556907653808594,96
122,1455730934.93626427650451660156,96
123,1455730934.98673105239868164062,96
124,1455730935.03621268272399902344,96
125,1455730935.08663487434387207031,96
126,1455730935.13609647750854492188,96
127,1455730935.18676900863647460938,96
128,1455730935.23617339134216308594,96
129,1455730935.28630661964416503906,96
130,1455730935.33664560317993164062,96
131,1455730935.38620162010192871094,96
132,1455730935.43673253059387207031,96
133,1455730935.48609972000122070312,96
134,1455730935.53661012649536132812,96
135,1455730935.58587026596069335938,96
136,1455730935.63644480705261230469,96
137,1455730935.68690538406372070312,96
138,1455730935.73649954795837402344,96
139,1455730935.7868633270263671875,96
140,1455730935.83632969856262207031,96
141,1455730935.88669276237487792969,96
142,1455730935.936023712158203125,96
143,1455730935.98662471771240234375,96
144,1455730936.03616476058959960938,96
145,1455730936.08667302131652832031,96
146,1455730936.13607645034790039062,96
147,1455730936.18659114837646484375,96
148,1455730936.23690009117126464844,96
149,1455730936.28645968437194824219,96
150,1455730936.33587622642517089844,96
151,1455730936.386249542236328125,96
152,1455730936.43689560890197753906,96
153,1455730936.48622584342956542969,96
154,1455730936.53685784339904785156,96
155,1455730936.58622479438781738281,96
156,1455730936.63669705390930175781,96
157,1455730936.68606090545654296875,96
158,1455730936.73651385307312011719,96
159,1455730936.78690576553344726562,96
160,1455730936.83626604080200195312,96
161,1455730936.88676619529724121094,96
162,1455730936.93622875213623046875,96
163,1455730936.9868183135986328125,96
164,1455730937.03623795509338378906,96
165,1455730937.08666682243347167969,96
166,1455730937.13614368438720703125,96
167,1455730937.18673920631408691406,96
168,1455730937.236083984375,96
169,1455730937.28651714324951171875,96
170,1455730937.33616948127746582031,96
171,1455730937.386508941650390625,96
172,1455730937.43593740463256835938,96
173,1455730937.48636174201965332031,96
174,1455730937.53685760498046875,96
175,1455730937.58625936508178710938,96
176,1455730937.63670992851257324219,96
177,1455730937.68608117103576660156,96
178,1455730937.73642253875732421875,96
179,1455730937.78590822219848632812,96
180,1455730937.83635663986206054688,96
181,1455730937.88683152198791503906,96
182,1455730937.93615221977233886719,96
183,1455730937.98669505119323730469,96
184,1455730938.03610491752624511719,96
185,1455730938.08649778366088867188,96
186,1455730938.13611125946044921875,96
187,1455730938.18656992912292480469,96
188,1455730938.23617243766784667969,96
189,1455730938.28660297393798828125,96
190,1455730938.33628988265991210938,96
191,1455730938.38666987419128417969,96
192,1455730938.43607163429260253906,96
193,1455730938.48644757270812988281,96
194,1455730938.53690338134765625,96
195,1455730938.58630084991455078125,96
196,1455730938.63663649559020996094,96
197,1455730938.68622231483459472656,96
198,1455730938.73668789863586425781,96
199,1455730938.786251068115234375,96
200,1455730938.83655953407287597656,96
201,1455730938.88705730438232421875,96
202,1455730938.93651151657104492188,96
203,1455730938.9869289398193359375,96
204,1455730939.03635096549987792969,96
205,1455730939.08660411834716796875,96
206,1455730939.13629436492919921875,96
207,1455730939.18679046630859375,96
208,1455730939.23633933067321777344,96
209,1455730939.28685712814331054688,96
210,1455730939.33651018142700195312,96
211,1455730939.38593649864196777344,96
212,1455730939.43637919425964355469,96
213,1455730939.48678350448608398438,96
214,1455730939.536167144775390625,96
215,1455730939.58663320541381835938,96
216,1455730939.63596820831298828125,96
217,1455730939.68648481369018554688,96
218,1455730939.73678517341613769531,96
219,1455730939.78637981414794921875,96
220,1455730939.83667778968811035156,96
221,1455730939.88614487648010253906,96
222,1455730939.93649768829345703125,96
223,1455730939.98692536354064941406,96
224,1455730940.036548614501953125,96
225,1455730940.08692073822021484375,96
226,1455730940.13638901710510253906,96
227,1455730940.18683290481567382812,96
228,1455730940.23631620407104492188,96
229,1455730940.28682541847229003906,96
230,1455730940.33645915985107421875,96
231,1455730940.38691234588623046875,96
232,1455730940.43625926971435546875,96
233,1455730940.48675823211669921875,96
234,1455730940.53625082969665527344,96
235,1455730940.58666896820068359375,96
236,1455730940.63598370552062988281,96
237,1455730940.68644285202026367188,96
238,1455730940.73677182197570800781,96
239,1455730940.78634214401245117188,96
240,1455730940.83669614791870117188,96
241,1455730940.88616514205932617188,96
242,1455730940.93672490119934082031,96
243,1455730940.98594880104064941406,96
244,1455730941.03649950027465820312,96
245,1455730941.08581900596618652344,96
246,1455730941.13645434379577636719,96
247,1455730941.18690252304077148438,96
248,1455730941.23635649681091308594,96
249,1455730941.28684115409851074219,96
250,1455730941.33631944656372070312,96
251,1455730941.38690209388732910156,96
252,1455730941.43625569343566894531,96
253,1455730941.48670792579650878906,96
254,1455730941.53617310523986816406,96
255,1455730941.58677339553833007812,96
256,1455730941.63618874549865722656,96
257,1455730941.68668007850646972656,96
258,1455730941.73593974113464355469,96
259,1455730941.78642821311950683594,96
260,1455730941.83584094047546386719,96
261,1455730941.88621187210083007812,96
262,1455730941.93686246871948242188,96
263,1455730941.98632478713989257812,96
264,1455730942.03701257705688476562,96
265,1455730942.0864200592041015625,96
266,1455730942.13668036460876464844,96
267,1455730942.18617177009582519531,96
268,1455730942.23651456832885742188,96
269,1455730942.28594923019409179688,96
270,1455730942.33650159835815429688,96
271,1455730942.38612484931945800781,96
272,1455730942.43660879135131835938,96
273,1455730942.48712968826293945312,96
274,1455730942.53656506538391113281,96
275,1455730942.58595776557922363281,96
276,1455730942.63633275032043457031,96
277,1455730942.68671679496765136719,96
278,1455730942.73621726036071777344,96
279,1455730942.78668832778930664062,96
280,1455730942.83629345893859863281,96
281,1455730942.88661050796508789062,96
282,1455730942.93608188629150390625,96
283,1455730942.98657870292663574219,96
284,1455730943.03596663475036621094,96
285,1455730943.08635735511779785156,96
286,1455730943.1366863250732421875,96
287,1455730943.18630528450012207031,96
288,1455730943.23673963546752929688,96
289,1455730943.28646016120910644531,96
290,1455730943.33688855171203613281,96
291,1455730943.38632893562316894531,96
292,1455730943.4368114471435546875,96
293,1455730943.48619985580444335938,96
294,1455730943.53661417961120605469,96
295,1455730943.5859584808349609375,96
296,1455730943.63647556304931640625,96
297,1455730943.68687844276428222656,96
298,1455730943.73646068572998046875,96
299,1455730943.78680157661437988281,96
300,1455730943.83638143539428710938,96
301,1455730943.88671565055847167969,96
302,1455730943.93620228767395019531,96
303,1455730943.98663568496704101562,96
304,1455730944.03614068031311035156,96
305,1455730944.08655548095703125,96
306,1455730944.13589215278625488281,96
307,1455730944.18650364875793457031,96
308,1455730944.23689699172973632812,96
309,1455730944.28653955459594726562,96
310,1455730944.33605837821960449219,96
311,1455730944.3865871429443359375,96
312,1455730944.43603229522705078125,96
313,1455730944.4863834381103515625,96
314,1455730944.53588819503784179688,96
315,1455730944.58620738983154296875,96
316,1455730944.63677382469177246094,96
317,1455730944.68612504005432128906,96
318,1455730944.7366943359375,96
319,1455730944.78610777854919433594,96
320,1455730944.83651494979858398438,96
321,1455730944.88690209388732910156,96
322,1455730944.93620514869689941406,96
323,1455730944.98669981956481933594,96
324,1455730945.03611421585083007812,96
325,1455730945.08662915229797363281,96
326,1455730945.13593840599060058594,96
327,1455730945.18636012077331542969,96
328,1455730945.23672413825988769531,96
329,1455730945.28627729415893554688,96
330,1455730945.33668756484985351562,96
331,1455730945.38610315322875976562,96
332,1455730945.43684744834899902344,96
333,1455730945.48627352714538574219,96
334,1455730945.53683686256408691406,96
335,1455730945.58621120452880859375,96
336,1455730945.63679766654968261719,96
337,1455730945.68614506721496582031,96
338,1455730945.73661375045776367188,96
339,1455730945.78589034080505371094,96
340,1455730945.83631086349487304688,96
341,1455730945.8868865966796875,96
342,1455730945.93624830245971679688,96
343,1455730945.98676967620849609375,96
344,1455730946.03609991073608398438,96
345,1455730946.08652067184448242188,96
346,1455730946.1368694305419921875,96
347,1455730946.18630313873291015625,96
348,1455730946.23669099807739257812,96
349,1455730946.28613615036010742188,96
350,1455730946.33692169189453125,96
351,1455730946.38632655143737792969,96
352,1455730946.43687725067138671875,96
353,1455730946.48620486259460449219,96
354,1455730946.53676462173461914062,96
355,1455730946.58624148368835449219,96
356,1455730946.63667058944702148438,96
357,1455730946.68607926368713378906,96
358,1455730946.73651218414306640625,96
359,1455730946.78625345230102539062,96
360,1455730946.83658099174499511719,96
361,1455730946.88609957695007324219,96
362,1455730946.93656277656555175781,96
363,1455730946.9869899749755859375,96
364,1455730947.03650546073913574219,96
365,1455730947.08699083328247070312,96
366,1455730947.13631749153137207031,96
367,1455730947.18682003021240234375,96
368,1455730947.23642969131469726562,96
369,1455730947.2868022918701171875,96
370,1455730947.33635210990905761719,96
371,1455730947.38680386543273925781,96
372,1455730947.43626856803894042969,96
373,1455730947.48663210868835449219,96
374,1455730947.53609347343444824219,96
375,1455730947.58657479286193847656,96
376,1455730947.63587784767150878906,96
377,1455730947.68637037277221679688,96
378,1455730947.7367458343505859375,96
379,1455730947.78638458251953125,96
380,1455730947.8367767333984375,96
381,1455730947.88627457618713378906,96
382,1455730947.93667006492614746094,96
383,1455730947.98607611656188964844,96
384,1455730948.03662705421447753906,96
385,1455730948.08608126640319824219,96
386,1455730948.13657999038696289062,96
387,1455730948.18584704399108886719,96
388,1455730948.23644280433654785156,96
389,1455730948.28683352470397949219,96
390,1455730948.33642482757568359375,96
391,1455730948.38682222366333007812,96
392,1455730948.43633818626403808594,96
393,1455730948.48683714866638183594,96
394,1455730948.53637599945068359375,96
395,1455730948.58587622642517089844,96
396,1455730948.63622546195983886719,96
397,1455730948.68674159049987792969,96
398,1455730948.73604869842529296875,96
399,1455730948.78666448593139648438,96
400,1455730948.83612012863159179688,96
401,1455730948.88663077354431152344,96
402,1455730948.93607425689697265625,96
403,1455730948.98643279075622558594,96
404,1455730949.03584909439086914062,96
405,1455730949.08620119094848632812,96
406,1455730949.13676881790161132812,96
407,1455730949.18616747856140136719,96
408,1455730949.23667073249816894531,96
409,1455730949.28611111640930175781,96
410,1455730949.33673453330993652344,96
411,1455730949.38631415367126464844,96
412,1455730949.43692183494567871094,96
413,1455730949.48657774925231933594,96
414,1455730949.53586220741271972656,96
415,1455730949.5863399505615234375,96
416,1455730949.63677620887756347656,96
417,1455730949.68635201454162597656,96
418,1455730949.73673224449157714844,96
419,1455730949.78622484207153320312,96
420,1455730949.83662915229797363281,96
421,1455730949.88608789443969726562,96
422,1455730949.93660879135131835938,96
423,1455730949.98691129684448242188,96
424,1455730950.03647732734680175781,96
425,1455730950.08694934844970703125,96
426,1455730950.13651418685913085938,96
427,1455730950.18691492080688476562,96
428,1455730950.23636841773986816406,96
429,1455730950.28679013252258300781,96
430,1455730950.33624148368835449219,96
431,1455730950.38685917854309082031,96
432,1455730950.43630504608154296875,96
433,1455730950.48691034317016601562,96
434,1455730950.53632521629333496094,96
435,1455730950.5868663787841796875,96
436,1455730950.63620615005493164062,96
437,1455730950.68679213523864746094,96
438,1455730950.73617410659790039062,96
439,1455730950.78656315803527832031,96
440,1455730950.83607339859008789062,96
441,1455730950.88648962974548339844,96
442,1455730950.93590235710144042969,96
443,1455730950.98630475997924804688,96
444,1455730951.03701424598693847656,96
445,1455730951.08652520179748535156,96
446,1455730951.136997222900390625,96
447,1455730951.18643832206726074219,96
448,1455730951.23675465583801269531,96
449,1455730951.286357879638671875,96
450,1455730951.33675336837768554688,96
451,1455730951.3862628936767578125,96
452,1455730951.43664669990539550781,96
453,1455730951.48608326911926269531,96
454,1455730951.53659701347351074219,96
455,1455730951.58617115020751953125,96
456,1455730951.63666868209838867188,96
457,1455730951.68602609634399414062,96
458,1455730951.73657369613647460938,96
459,1455730951.78592705726623535156,96
460,1455730951.83658170700073242188,96
461,1455730951.88589835166931152344,96
462,1455730951.93633341789245605469,96
463,1455730951.98671698570251464844,96
464,1455730952.03633451461791992188,96
465,1455730952.08667612075805664062,96
466,1455730952.13596987724304199219,96
467,1455730952.18649220466613769531,96
468,1455730952.23688912391662597656,96
469,1455730952.28656601905822753906,96
470,1455730952.33592081069946289062,96
471,1455730952.3866176605224609375,96
472,1455730952.43611955642700195312,96
473,1455730952.48657965660095214844,96
474,1455730952.5358867645263671875,96
475,1455730952.58631396293640136719,96
476,1455730952.63691353797912597656,96
477,1455730952.68625974655151367188,96
478,1455730952.73682951927185058594,96
479,1455730952.78624963760375976562,96
480,1455730952.83667707443237304688,96
481,1455730952.88606595993041992188,96
482,1455730952.93654990196228027344,96
483,1455730952.98590397834777832031,96
484,1455730953.036418914794921875,96
485,1455730953.0859355926513671875,96
486,1455730953.13638997077941894531,96
487,1455730953.18590140342712402344,96
488,1455730953.23624300956726074219,96
489,1455730953.28685498237609863281,96
490,1455730953.33626437187194824219,96
491,1455730953.38673901557922363281,96
492,1455730953.43612957000732421875,96
493,1455730953.48647189140319824219,96
494,1455730953.53585481643676757812,96
495,1455730953.58622121810913085938,96
496,1455730953.63679480552673339844,96
497,1455730953.68615007400512695312,96
498,1455730953.73665857315063476562,96
499,1455730953.78609228134155273438,96
500,1455730953.836574554443359375,96
501,1455730953.88590240478515625,96
502,1455730953.9361972808837890625,96
503,1455730953.98684859275817871094,96
504,1455730954.0362682342529296875,96
505,1455730954.08585476875305175781,96
506,1455730954.13621640205383300781,96
507,1455730954.18675756454467773438,96
508,1455730954.23607349395751953125,96
509,1455730954.28662919998168945312,96
510,1455730954.33617544174194335938,96
511,1455730954.38659238815307617188,96
512,1455730954.4362125396728515625,96
513,1455730954.48617458343505859375,96
514,1455730954.53680324554443359375,96
515,1455730954.58627986907958984375,96
516,1455730954.63681960105895996094,96
