id, time (s), size (bits)
0,1455730927.95975446701049804688,96
1,1455730928.05919480323791503906,96
2,1455730928.06041765213012695312,96
3,1455730928.11012244224548339844,96
4,1455730928.15992331504821777344,96
5,1455730928.2093982696533203125,96
6,1455730928.26010346412658691406,96
7,1455730928.30963611602783203125,96
8,1455730928.36188077926635742188,96
9,1455730928.40976786613464355469,96
10,1455730928.45921349525451660156,96
11,1455730928.50957012176513671875,96
12,1455730928.55911993980407714844,96
13,1455730928.60960626602172851562,96
14,1455730928.66000056266784667969,96
15,1455730928.70948314666748046875,96
16,1455730928.75906348228454589844,96
17,1455730928.8097171783447265625,96
18,1455730928.85885500907897949219,96
19,1455730928.90934514999389648438,96
20,1455730928.95946574211120605469,96
21,1455730929.00986623764038085938,96
22,1455730929.05909276008605957031,96
23,1455730929.10948491096496582031,96
24,1455730929.15966534614562988281,96
25,1455730929.20982456207275390625,96
26,1455730929.25922703742980957031,96
27,1455730929.30943560600280761719,96
28,1455730929.35986042022705078125,96
29,1455730929.40908718109130859375,96
30,1455730929.4593868255615234375,96
31,1455730929.50968217849731445312,96
32,1455730929.55939388275146484375,96
33,1455730929.60895824432373046875,96
34,1455730929.65948462486267089844,96
35,1455730929.70914101600646972656,96
36,1455730929.75962686538696289062,96
37,1455730929.80921101570129394531,96
38,1455730929.85969066619873046875,96
39,1455730929.90933442115783691406,96
40,1455730929.95974206924438476562,96
41,1455730930.00928759574890136719,96
42,1455730930.05979180335998535156,96
43,1455730930.10913395881652832031,96
44,1455730930.15974831581115722656,96
45,1455730930.20908808708190917969,96
46,1455730930.25959920883178710938,96
47,1455730930.30897688865661621094,96
48,1455730930.35945439338684082031,96
49,1455730930.40995073318481445312,96
50,1455730930.45946049690246582031,96
51,1455730930.5098400115966796875,96
52,1455730930.55928277969360351562,96
53,1455730930.60983920097351074219,96
54,1455730930.65913724899291992188,96
55,1455730930.70964598655700683594,96
56,1455730930.75898289680480957031,96
57,1455730930.80939936637878417969,96
58,1455730930.85974049568176269531,96
59,1455730930.9091434478759765625,96
60,1455730930.95953321456909179688,96
61,1455730931.00985860824584960938,96
62,1455730931.05941748619079589844,96
63,1455730931.10974431037902832031,96
64,1455730931.15925073623657226562,96
65,1455730931.20986390113830566406,96
66,1455730931.25940728187561035156,96
67,1455730931.30985522270202636719,96
68,1455730931.35933065414428710938,96
69,1455730931.40976953506469726562,96
70,1455730931.45923495292663574219,96
71,1455730931.5097217559814453125,96
72,1455730931.55920529365539550781,96
73,1455730931.6097087860107421875,96
74,1455730931.65907502174377441406,96
75,1455730931.70956325531005859375,96
76,1455730931.7599391937255859375,96
77,1455730931.80945611000061035156,96
78,1455730931.8598804473876953125,96
79,1455730931.90925383567810058594,96
80,1455730931.95968174934387207031,96
81,1455730932.00896716117858886719,96
82,1455730932.05937147140502929688,96
83,1455730932.10969066619873046875,96
84,1455730932.15914273262023925781,96
85,1455730932.20950579643249511719,96
86,1455730932.25996565818786621094,96
87,1455730932.30940103530883789062,96
88,1455730932.35975360870361328125,96
89,1455730932.40929937362670898438,96
90,1455730932.45960903167724609375,96
91,1455730932.50916433334350585938,96
92,1455730932.55954623222351074219,96
93,1455730932.61011171340942382812,96
94,1455730932.65954947471618652344,96
95,1455730932.71001982688903808594,96
96,1455730932.75940346717834472656,96
97,1455730932.80981922149658203125,96
98,1455730932.85931730270385742188,96
99,1455730932.90973687171936035156,96
100,1455730932.95922636985778808594,96
101,1455730933.00956392288208007812,96
102,1455730933.06023192405700683594,96
103,1455730933.10969781875610351562,96
104,1455730933.15932488441467285156,96
105,1455730933.20965981483459472656,96
106,1455730933.25899171829223632812,96
107,1455730933.30940032005310058594,96
108,1455730933.35978102684020996094,96
109,1455730933.40938019752502441406,96
110,1455730933.45969080924987792969,96
111,1455730933.50922751426696777344,96
112,1455730933.55963659286499023438,96
113,1455730933.61001491546630859375,96
114,1455730933.65943980216979980469,96
115,1455730933.70972752571105957031,96
116,1455730933.75939154624938964844,96
117,1455730933.80976247787475585938,96
118,1455730933.8593540191650390625,96
119,1455730933.90979099273681640625,96
120,1455730933.95938062667846679688,96
121,1455730934.0098323822021484375,96
122,1455730934.05930280685424804688,96
123,1455730934.1096591949462890625,96
124,1455730934.15890550613403320312,96
125,1455730934.20939159393310546875,96
126,1455730934.25974774360656738281,96
127,1455730934.30968475341796875,96
128,1455730934.35892510414123535156,96
129,1455730934.40997552871704101562,96
130,1455730934.45935702323913574219,96
131,1455730934.509807586669921875,96
132,1455730934.55932068824768066406,96
133,1455730934.60972929000854492188,96
134,1455730934.6593685150146484375,96
135,1455730934.70967388153076171875,96
136,1455730934.75929546356201171875,96
137,1455730934.80966687202453613281,96
138,1455730934.85905933380126953125,96
139,1455730934.90947365760803222656,96
140,1455730934.95986151695251464844,96
141,1455730935.0092315673828125,96
142,1455730935.05955362319946289062,96
143,1455730935.10895371437072753906,96
144,1455730935.15934920310974121094,96
145,1455730935.20982050895690917969,96
146,1455730935.25929236412048339844,96
147,1455730935.30978465080261230469,96
148,1455730935.35907459259033203125,96
149,1455730935.4095821380615234375,96
150,1455730935.45885396003723144531,96
151,1455730935.50922155380249023438,96
152,1455730935.55976724624633789062,96
153,1455730935.60894799232482910156,96
154,1455730935.65956473350524902344,96
155,1455730935.70984864234924316406,96
156,1455730935.75948500633239746094,96
157,1455730935.80995535850524902344,96
158,1455730935.859462738037109375,96
159,1455730935.90981292724609375,96
160,1455730935.95914363861083984375,96
161,1455730936.00960755348205566406,96
162,1455730936.05887389183044433594,96
163,1455730936.10940837860107421875,96
164,1455730936.15977358818054199219,96
165,1455730936.20923376083374023438,96
166,1455730936.25957727432250976562,96
167,1455730936.30904459953308105469,96
168,1455730936.35943102836608886719,96
169,1455730936.40985155105590820312,96
170,1455730936.4594554901123046875,96
171,1455730936.50975489616394042969,96
172,1455730936.5593090057373046875,96
173,1455730936.60974764823913574219,96
174,1455730936.65926337242126464844,96
175,1455730936.70958876609802246094,96
176,1455730936.75909757614135742188,96
177,1455730936.80940294265747070312,96
178,1455730936.85982966423034667969,96
179,1455730936.90943264961242675781,96
180,1455730936.95971131324768066406,96
181,1455730937.00918626785278320312,96
182,1455730937.05950641632080078125,96
183,1455730937.10997056961059570312,96
184,1455730937.15938258171081542969,96
185,1455730937.20973443984985351562,96
186,1455730937.25916218757629394531,96
187,1455730937.30940937995910644531,96
188,1455730937.35892653465270996094,96
189,1455730937.40936613082885742188,96
190,1455730937.45978617668151855469,96
191,1455730937.50918078422546386719,96
192,1455730937.559719085693359375,96
193,1455730937.6089611053466796875,96
194,1455730937.659435272216796875,96
195,1455730937.70976543426513671875,96
196,1455730937.75918436050415039062,96
197,1455730937.80979418754577636719,96
198,1455730937.85905742645263671875,96
199,1455730937.90965747833251953125,96
200,1455730937.95909476280212402344,96
201,1455730938.00955462455749511719,96
202,1455730938.0589351654052734375,96
203,1455730938.10935878753662109375,96
204,1455730938.15978932380676269531,96
205,1455730938.20909810066223144531,96
206,1455730938.25978589057922363281,96
207,1455730938.30926823616027832031,96
208,1455730938.35981607437133789062,96
209,1455730938.40914034843444824219,96
210,1455730938.45961737632751464844,96
211,1455730938.50895953178405761719,96
212,1455730938.5594959259033203125,96
213,1455730938.60988450050354003906,96
214,1455730938.65927410125732421875,96
215,1455730938.70974993705749511719,96
216,1455730938.759197235107421875,96
217,1455730938.80981469154357910156,96
218,1455730938.85908460617065429688,96
219,1455730938.90959095954895019531,96
220,1455730938.95993089675903320312,96
221,1455730939.00947833061218261719,96
222,1455730939.05992293357849121094,96
223,1455730939.10919547080993652344,96
224,1455730939.15972685813903808594,96
225,1455730939.2091579437255859375,96
226,1455730939.25967454910278320312,96
227,1455730939.30891132354736328125,96
228,1455730939.35939335823059082031,96
229,1455730939.40978407859802246094,96
230,1455730939.45939087867736816406,96
231,1455730939.50986886024475097656,96
232,1455730939.55931830406188964844,96
233,1455730939.60979914665222167969,96
234,1455730939.65911340713500976562,96
235,1455730939.70959115028381347656,96
236,1455730939.75909829139709472656,96
237,1455730939.80948781967163085938,96
238,1455730939.8588886260986328125,96
239,1455730939.90950036048889160156,96
240,1455730939.95983290672302246094,96
241,1455730940.00920557975769042969,96
242,1455730940.05982732772827148438,96
243,1455730940.10908651351928710938,96
244,1455730940.15967631340026855469,96
245,1455730940.20897507667541503906,96
246,1455730940.25959610939025878906,96
247,1455730940.30971980094909667969,96
248,1455730940.35910129547119140625,96
249,1455730940.40951180458068847656,96
250,1455730940.4597835540771484375,96
251,1455730940.50930809974670410156,96
252,1455730940.55976176261901855469,96
253,1455730940.60923480987548828125,96
254,1455730940.65964245796203613281,96
255,1455730940.7091960906982421875,96
256,1455730940.75958490371704101562,96
257,1455730940.810085296630859375,96
258,1455730940.85945439338684082031,96
259,1455730940.90977811813354492188,96
260,1455730940.95928621292114257812,96
261,1455730941.00962424278259277344,96
262,1455730941.05909562110900878906,96
263,1455730941.10940480232238769531,96
264,1455730941.15999293327331542969,96
265,1455730941.20939540863037109375,96
266,1455730941.25987672805786132812,96
267,1455730941.30924177169799804688,96
268,1455730941.35958647727966308594,96
269,1455730941.40897369384765625,96
270,1455730941.45929551124572753906,96
271,1455730941.50984072685241699219,96
272,1455730941.55932307243347167969,96
273,1455730941.60988140106201171875,96
274,1455730941.65930151939392089844,96
275,1455730941.70968151092529296875,96
276,1455730941.75911545753479003906,96
277,1455730941.80942130088806152344,96
278,1455730941.85990619659423828125,96
279,1455730941.9092884063720703125,96
280,1455730941.95970296859741210938,96
281,1455730942.00898504257202148438,96
282,1455730942.05951142311096191406,96
283,1455730942.10991001129150390625,96
284,1455730942.15941572189331054688,96
285,1455730942.20972037315368652344,96
286,1455730942.25909137725830078125,96
287,1455730942.30953192710876464844,96
288,1455730942.35892939567565917969,96
289,1455730942.40958333015441894531,96
290,1455730942.4589023590087890625,96
291,1455730942.50951051712036132812,96
292,1455730942.55908083915710449219,96
293,1455730942.60954403877258300781,96
294,1455730942.659999847412109375,96
295,1455730942.70936727523803710938,96
296,1455730942.758914947509765625,96
297,1455730942.80921840667724609375,96
298,1455730942.85980248451232910156,96
299,1455730942.90911602973937988281,96
300,1455730942.95959734916687011719,96
301,1455730943.00894951820373535156,96
302,1455730943.05938410758972167969,96
303,1455730943.10978078842163085938,96
304,1455730943.15911960601806640625,96
305,1455730943.20961856842041015625,96
306,1455730943.2589168548583984375,96
307,1455730943.30941677093505859375,96
308,1455730943.35990309715270996094,96
309,1455730943.40944218635559082031,96
310,1455730943.45981287956237792969,96
311,1455730943.50946521759033203125,96
312,1455730943.55894041061401367188,96
313,1455730943.60930991172790527344,96
314,1455730943.65989279747009277344,96
315,1455730943.70929980278015136719,96
316,1455730943.75989031791687011719,96
317,1455730943.80943059921264648438,96
318,1455730943.8600177764892578125,96
319,1455730943.90953516960144042969,96
320,1455730943.95897817611694335938,96
321,1455730944.00938749313354492188,96
322,1455730944.05987405776977539062,96
323,1455730944.10928082466125488281,96
324,1455730944.15974211692810058594,96
325,1455730944.20940518379211425781,96
326,1455730944.25975465774536132812,96
327,1455730944.30923676490783691406,96
328,1455730944.35973501205444335938,96
329,1455730944.40910458564758300781,96
330,1455730944.459499359130859375,96
331,1455730944.50991296768188476562,96
332,1455730944.55961942672729492188,96
333,1455730944.60901999473571777344,96
334,1455730944.65972256660461425781,96
335,1455730944.70916867256164550781,96
336,1455730944.75969362258911132812,96
337,1455730944.80912232398986816406,96
338,1455730944.85957813262939453125,96
339,1455730944.90889263153076171875,96
340,1455730944.95920228958129882812,96
341,1455730945.00984144210815429688,96
342,1455730945.05924677848815917969,96
343,1455730945.109859466552734375,96
344,1455730945.15927147865295410156,96
345,1455730945.20967459678649902344,96
346,1455730945.25899267196655273438,96
347,1455730945.30962514877319335938,96
348,1455730945.35995268821716308594,96
349,1455730945.40943932533264160156,96
350,1455730945.45919489860534667969,96
351,1455730945.50958895683288574219,96
352,1455730945.55924010276794433594,96
353,1455730945.60963463783264160156,96
354,1455730945.65926957130432128906,96
355,1455730945.70957469940185546875,96
356,1455730945.76004624366760253906,96
357,1455730945.80943179130554199219,96
358,1455730945.85982751846313476562,96
359,1455730945.90948390960693359375,96
360,1455730945.95973730087280273438,96
361,1455730946.0092830657958984375,96
362,1455730946.0598011016845703125,96
363,1455730946.10921454429626464844,96
364,1455730946.15959644317626953125,96
365,1455730946.2090301513671875,96
366,1455730946.2594509124755859375,96
367,1455730946.30986475944519042969,96
368,1455730946.35952067375183105469,96
369,1455730946.408935546875,96
370,1455730946.45941495895385742188,96
371,1455730946.5098419189453125,96
372,1455730946.55948758125305175781,96
373,1455730946.60992407798767089844,96
374,1455730946.65957021713256835938,96
375,1455730946.708904266357421875,96
376,1455730946.75931453704833984375,96
377,1455730946.809879302978515625,96
378,1455730946.85914635658264160156,96
379,1455730946.90966129302978515625,96
380,1455730946.95889592170715332031,96
381,1455730947.00939702987670898438,96
382,1455730947.05977773666381835938,96
383,1455730947.10918521881103515625,96
384,1455730947.15961313247680664062,96
385,1455730947.20895671844482421875,96
386,1455730947.25944161415100097656,96
387,1455730947.30982160568237304688,96
388,1455730947.35925650596618652344,96
389,1455730947.40965676307678222656,96
390,1455730947.45906114578247070312,96
391,1455730947.50945711135864257812,96
392,1455730947.56004810333251953125,96
393,1455730947.60944652557373046875,96
394,1455730947.65979290008544921875,96
395,1455730947.70929193496704101562,96
396,1455730947.7596988677978515625,96
397,1455730947.80920910835266113281,96
398,1455730947.85954928398132324219,96
399,1455730947.91004800796508789062,96
400,1455730947.95942354202270507812,96
401,1455730948.00990819931030273438,96
402,1455730948.05936312675476074219,96
403,1455730948.10970616340637207031,96
404,1455730948.15916943550109863281,96
405,1455730948.20951533317565917969,96
406,1455730948.25895738601684570312,96
407,1455730948.309268951416015625,96
408,1455730948.35974240303039550781,96
409,1455730948.40911221504211425781,96
410,1455730948.45960783958435058594,96
411,1455730948.50901031494140625,96
412,1455730948.55934095382690429688,96
413,1455730948.60995745658874511719,96
414,1455730948.65942907333374023438,96
415,1455730948.70899677276611328125,96
416,1455730948.75938534736633300781,96
417,1455730948.81011724472045898438,96
418,1455730948.85960626602172851562,96
419,1455730948.91004133224487304688,96
420,1455730948.95952868461608886719,96
421,1455730949.00986909866333007812,96
422,1455730949.05944728851318359375,96
423,1455730949.10988140106201171875,96
424,1455730949.15948724746704101562,96
425,1455730949.20979332923889160156,96
426,1455730949.2594509124755859375,96
427,1455730949.30988812446594238281,96
428,1455730949.35927486419677734375,96
429,1455730949.40969419479370117188,96
430,1455730949.4589405059814453125,96
431,1455730949.50945520401000976562,96
432,1455730949.55986762046813964844,96
433,1455730949.60934710502624511719,96
434,1455730949.65972137451171875,96
435,1455730949.70917463302612304688,96
436,1455730949.75958681106567382812,96
437,1455730949.81008791923522949219,96
438,1455730949.85953855514526367188,96
439,1455730949.90992784500122070312,96
440,1455730949.95943212509155273438,96
441,1455730950.00976443290710449219,96
442,1455730950.05923414230346679688,96
443,1455730950.10956335067749023438,96
444,1455730950.16013979911804199219,96
445,1455730950.20952391624450683594,96
446,1455730950.25997090339660644531,96
447,1455730950.309474945068359375,96
448,1455730950.35989141464233398438,96
449,1455730950.4095287322998046875,96
450,1455730950.45979404449462890625,96
451,1455730950.509326934814453125,96
452,1455730950.55972528457641601562,96
453,1455730950.60930204391479492188,96
454,1455730950.65971064567565917969,96
455,1455730950.70904517173767089844,96
456,1455730950.75942921638488769531,96
457,1455730950.809833526611328125,96
458,1455730950.85926008224487304688,96
459,1455730950.90963768959045410156,96
460,1455730950.95916128158569335938,96
461,1455730951.00953578948974609375,96
462,1455730951.06010127067565917969,96
463,1455730951.10951375961303710938,96
464,1455730951.15997838973999023438,96
465,1455730951.20936441421508789062,96
466,1455730951.25969457626342773438,96
467,1455730951.30919814109802246094,96
468,1455730951.35955381393432617188,96
469,1455730951.40914225578308105469,96
470,1455730951.45950746536254882812,96
471,1455730951.509990692138671875,96
472,1455730951.55940842628479003906,96
473,1455730951.60987401008605957031,96
474,1455730951.65928959846496582031,96
475,1455730951.70957422256469726562,96
476,1455730951.75899910926818847656,96
477,1455730951.80928587913513183594,96
478,1455730951.8598232269287109375,96
479,1455730951.90916132926940917969,96
480,1455730951.95963430404663085938,96
481,1455730952.00898075103759765625,96
482,1455730952.05936360359191894531,96
483,1455730952.10972499847412109375,96
484,1455730952.15893507003784179688,96
485,1455730952.209423065185546875,96
486,1455730952.25980615615844726562,96
487,1455730952.30940175056457519531,96
488,1455730952.3597545623779296875,96
489,1455730952.40926313400268554688,96
490,1455730952.45957660675048828125,96
491,1455730952.51005291938781738281,96
492,1455730952.55947113037109375,96
493,1455730952.60980939865112304688,96
494,1455730952.65930581092834472656,96
495,1455730952.70960235595703125,96
496,1455730952.75917983055114746094,96
497,1455730952.80968451499938964844,96
498,1455730952.85904693603515625,96
499,1455730952.9094638824462890625,96
500,1455730952.9598445892333984375,96
501,1455730953.00935435295104980469,96
502,1455730953.05980563163757324219,96
503,1455730953.1094970703125,96
504,1455730953.15995359420776367188,96
505,1455730953.20945334434509277344,96
506,1455730953.25978493690490722656,96
507,1455730953.30936980247497558594,96
508,1455730953.35980820655822753906,96
509,1455730953.40928339958190917969,96
510,1455730953.45961904525756835938,96
511,1455730953.50896430015563964844,96
512,1455730953.55961966514587402344,96
513,1455730953.60980391502380371094,96
514,1455730953.65933275222778320312,96
515,1455730953.70962643623352050781,96
516,1455730953.75909304618835449219,96
517,1455730953.80948424339294433594,96
