id, time (s), size (bits)
0,1455730927.50081133842468261719,96
1,1455730927.60924315452575683594,96
2,1455730927.62673902511596679688,96
3,1455730927.65115833282470703125,96
4,1455730927.7003765106201171875,96
5,1455730927.75079512596130371094,96
6,1455730927.80001854896545410156,96
7,1455730927.8502063751220703125,96
8,1455730927.90064716339111328125,96
9,1455730927.95099377632141113281,96
10,1455730928.00031805038452148438,96
11,1455730928.05046439170837402344,96
12,1455730928.10073137283325195312,96
13,1455730928.15084409713745117188,96
14,1455730928.20101761817932128906,96
15,1455730928.25021338462829589844,96
16,1455730928.30028080940246582031,96
17,1455730928.35075545310974121094,96
18,1455730928.40090870857238769531,96
19,1455730928.45027279853820800781,96
20,1455730928.50035214424133300781,96
21,1455730928.55061221122741699219,96
22,1455730928.60074687004089355469,96
23,1455730928.65105557441711425781,96
24,1455730928.70039129257202148438,96
25,1455730928.75060153007507324219,96
26,1455730928.79997706413269042969,96
27,1455730928.85013175010681152344,96
28,1455730928.90046954154968261719,96
29,1455730928.95063042640686035156,96
30,1455730929.00088429450988769531,96
31,1455730929.05012869834899902344,96
32,1455730929.10033822059631347656,96
33,1455730929.150699615478515625,96
34,1455730929.20084643363952636719,96
35,1455730929.25022530555725097656,96
36,1455730929.30034041404724121094,96
37,1455730929.35076451301574707031,96
38,1455730929.40093660354614257812,96
39,1455730929.45022535324096679688,96
40,1455730929.50054979324340820312,96
41,1455730929.5501575469970703125,96
42,1455730929.60070037841796875,96
43,1455730929.65105748176574707031,96
44,1455730929.70079207420349121094,96
45,1455730929.75026845932006835938,96
46,1455730929.8009090423583984375,96
47,1455730929.85032200813293457031,96
48,1455730929.90091800689697265625,96
49,1455730929.95040130615234375,96
50,1455730930.00099849700927734375,96
51,1455730930.05047130584716796875,96
52,1455730930.10097241401672363281,96
53,1455730930.15055084228515625,96
54,1455730930.20102953910827636719,96
55,1455730930.25060367584228515625,96
56,1455730930.30105996131896972656,96
57,1455730930.35062694549560546875,96
58,1455730930.40001440048217773438,96
59,1455730930.45071244239807128906,96
60,1455730930.50023365020751953125,96
61,1455730930.55066657066345214844,96
62,1455730930.60028576850891113281,96
63,1455730930.6506500244140625,96
64,1455730930.70034551620483398438,96
65,1455730930.75009632110595703125,96
66,1455730930.8007068634033203125,96
67,1455730930.85008955001831054688,96
68,1455730930.90067362785339355469,96
69,1455730930.95006847381591796875,96
70,1455730931.00040888786315917969,96
71,1455730931.05099534988403320312,96
72,1455730931.10044193267822265625,96
73,1455730931.15104222297668457031,96
74,1455730931.20054864883422851562,96
75,1455730931.25118970870971679688,96
76,1455730931.30068373680114746094,96
77,1455730931.35020542144775390625,96
78,1455730931.40071845054626464844,96
79,1455730931.45006346702575683594,96
80,1455730931.50065565109252929688,96
81,1455730931.55098962783813476562,96
82,1455730931.60048675537109375,96
83,1455730931.65096449851989746094,96
84,1455730931.70029568672180175781,96
85,1455730931.75073337554931640625,96
86,1455730931.80120158195495605469,96
87,1455730931.85068750381469726562,96
88,1455730931.89999151229858398438,96
89,1455730931.95061564445495605469,96
90,1455730932.00106883049011230469,96
91,1455730932.05055785179138183594,96
92,1455730932.10103368759155273438,96
93,1455730932.15068554878234863281,96
94,1455730932.20010328292846679688,96
95,1455730932.25071310997009277344,96
96,1455730932.30007719993591308594,96
97,1455730932.35042452812194824219,96
98,1455730932.40103936195373535156,96
99,1455730932.45045351982116699219,96
100,1455730932.50104427337646484375,96
101,1455730932.55033802986145019531,96
102,1455730932.60107374191284179688,96
103,1455730932.65061402320861816406,96
104,1455730932.70043253898620605469,96
105,1455730932.75107836723327636719,96
106,1455730932.80040431022644042969,96
107,1455730932.8510532379150390625,96
108,1455730932.90048527717590332031,96
109,1455730932.95107769966125488281,96
110,1455730933.00044131278991699219,96
111,1455730933.05107283592224121094,96
112,1455730933.10063052177429199219,96
113,1455730933.15116286277770996094,96
114,1455730933.20058178901672363281,96
115,1455730933.25105500221252441406,96
116,1455730933.30058264732360839844,96
117,1455730933.35095548629760742188,96
118,1455730933.40052700042724609375,96
119,1455730933.45090746879577636719,96
120,1455730933.50057840347290039062,96
121,1455730933.55105161666870117188,96
122,1455730933.600719451904296875,96
123,1455730933.65003108978271484375,96
124,1455730933.70058083534240722656,96
125,1455730933.75010347366333007812,96
126,1455730933.80055880546569824219,96
127,1455730933.8501758575439453125,96
128,1455730933.90060949325561523438,96
129,1455730933.95068359375,96
130,1455730934.00026297569274902344,96
131,1455730934.05080056190490722656,96
132,1455730934.10029482841491699219,96
133,1455730934.15064167976379394531,96
134,1455730934.2000789642333984375,96
135,1455730934.2505817413330078125,96
136,1455730934.30012726783752441406,96
137,1455730934.35039448738098144531,96
138,1455730934.40088295936584472656,96
139,1455730934.45038342475891113281,96
140,1455730934.50087070465087890625,96
141,1455730934.5503444671630859375,96
142,1455730934.60078907012939453125,96
143,1455730934.6503658294677734375,96
144,1455730934.70082592964172363281,96
145,1455730934.75056242942810058594,96
146,1455730934.80099892616271972656,96
147,1455730934.85052657127380371094,96
148,1455730934.90096735954284667969,96
149,1455730934.95054268836975097656,96
150,1455730935.00103545188903808594,96
151,1455730935.05035901069641113281,96
152,1455730935.10099697113037109375,96
153,1455730935.15040731430053710938,96
154,1455730935.201099395751953125,96
155,1455730935.25058841705322265625,96
156,1455730935.30115389823913574219,96
157,1455730935.3506412506103515625,96
158,1455730935.40103697776794433594,96
159,1455730935.45049333572387695312,96
160,1455730935.50077223777770996094,96
161,1455730935.55036830902099609375,96
162,1455730935.60083889961242675781,96
163,1455730935.65048146247863769531,96
164,1455730935.70096564292907714844,96
165,1455730935.750568389892578125,96
166,1455730935.80103611946105957031,96
167,1455730935.85064435005187988281,96
168,1455730935.90096735954284667969,96
169,1455730935.95035505294799804688,96
170,1455730936.00104570388793945312,96
171,1455730936.05034947395324707031,96
172,1455730936.10095953941345214844,96
173,1455730936.15037274360656738281,96
174,1455730936.20102906227111816406,96
175,1455730936.25043702125549316406,96
176,1455730936.30096459388732910156,96
177,1455730936.35033679008483886719,96
178,1455730936.40064978599548339844,96
179,1455730936.45027256011962890625,96
180,1455730936.500545501708984375,96
181,1455730936.55103468894958496094,96
182,1455730936.60043311119079589844,96
183,1455730936.65090298652648925781,96
184,1455730936.70042920112609863281,96
185,1455730936.75109386444091796875,96
186,1455730936.80056476593017578125,96
187,1455730936.851062774658203125,96
188,1455730936.90076136589050292969,96
189,1455730936.95010662078857421875,96
190,1455730937.00067472457885742188,96
191,1455730937.05107069015502929688,96
192,1455730937.10059070587158203125,96
193,1455730937.15098690986633300781,96
194,1455730937.20049929618835449219,96
195,1455730937.25104308128356933594,96
196,1455730937.30031800270080566406,96
197,1455730937.35103917121887207031,96
198,1455730937.40039873123168945312,96
199,1455730937.45100617408752441406,96
200,1455730937.50047135353088378906,96
201,1455730937.55102276802062988281,96
202,1455730937.60050225257873535156,96
203,1455730937.65095448493957519531,96
204,1455730937.70042061805725097656,96
205,1455730937.75080823898315429688,96
206,1455730937.80047392845153808594,96
207,1455730937.85108327865600585938,96
208,1455730937.90062999725341796875,96
209,1455730937.95108270645141601562,96
210,1455730938.00067186355590820312,96
211,1455730938.0510082244873046875,96
212,1455730938.1006679534912109375,96
213,1455730938.15004682540893554688,96
214,1455730938.20055341720581054688,96
215,1455730938.25012922286987304688,96
216,1455730938.30056405067443847656,96
217,1455730938.35004115104675292969,96
218,1455730938.40048146247863769531,96
219,1455730938.45106172561645507812,96
220,1455730938.50053739547729492188,96
221,1455730938.55113959312438964844,96
222,1455730938.60059404373168945312,96
223,1455730938.65109753608703613281,96
224,1455730938.70080065727233886719,96
225,1455730938.7503204345703125,96
226,1455730938.80091428756713867188,96
227,1455730938.85034823417663574219,96
228,1455730938.90084481239318847656,96
229,1455730938.95032763481140136719,96
230,1455730939.00086736679077148438,96
231,1455730939.05039501190185546875,96
232,1455730939.10090303421020507812,96
233,1455730939.15050554275512695312,96
234,1455730939.20098829269409179688,96
235,1455730939.25054121017456054688,96
236,1455730939.30075049400329589844,96
237,1455730939.35131168365478515625,96
238,1455730939.40081715583801269531,96
239,1455730939.45032262802124023438,96
240,1455730939.500774383544921875,96
241,1455730939.55007410049438476562,96
242,1455730939.60068154335021972656,96
243,1455730939.65099334716796875,96
244,1455730939.70067095756530761719,96
245,1455730939.75108122825622558594,96
246,1455730939.80056524276733398438,96
247,1455730939.85107326507568359375,96
248,1455730939.90056562423706054688,96
249,1455730939.94999408721923828125,96
250,1455730940.0003108978271484375,96
251,1455730940.05089545249938964844,96
252,1455730940.10022282600402832031,96
253,1455730940.15070581436157226562,96
254,1455730940.2010593414306640625,96
255,1455730940.25079488754272460938,96
256,1455730940.3001155853271484375,96
257,1455730940.35068845748901367188,96
258,1455730940.40105271339416503906,96
259,1455730940.45046687126159667969,96
260,1455730940.50104856491088867188,96
261,1455730940.55033969879150390625,96
262,1455730940.60095953941345214844,96
263,1455730940.6504077911376953125,96
264,1455730940.70118665695190429688,96
265,1455730940.7507343292236328125,96
266,1455730940.80119967460632324219,96
267,1455730940.85069704055786132812,96
268,1455730940.90105319023132324219,96
269,1455730940.95057010650634765625,96
270,1455730941.00102448463439941406,96
271,1455730941.05054736137390136719,96
272,1455730941.1010303497314453125,96
273,1455730941.15067148208618164062,96
274,1455730941.20107340812683105469,96
275,1455730941.25056719779968261719,96
276,1455730941.30103039741516113281,96
277,1455730941.35035467147827148438,96
278,1455730941.40093970298767089844,96
279,1455730941.45040392875671386719,96
280,1455730941.50098061561584472656,96
281,1455730941.55036616325378417969,96
282,1455730941.601047515869140625,96
283,1455730941.65049958229064941406,96
284,1455730941.70097494125366210938,96
285,1455730941.75046634674072265625,96
286,1455730941.80083823204040527344,96
287,1455730941.85040497779846191406,96
288,1455730941.90072321891784667969,96
289,1455730941.95020961761474609375,96
290,1455730942.00058102607727050781,96
291,1455730942.05112576484680175781,96
292,1455730942.10049557685852050781,96
293,1455730942.15102458000183105469,96
294,1455730942.20043683052062988281,96
295,1455730942.25090742111206054688,96
296,1455730942.30050611495971679688,96
297,1455730942.3509845733642578125,96
298,1455730942.40056777000427246094,96
299,1455730942.45091843605041503906,96
300,1455730942.50048923492431640625,96
301,1455730942.55094456672668457031,96
302,1455730942.60045289993286132812,96
303,1455730942.65093851089477539062,96
304,1455730942.70049500465393066406,96
305,1455730942.75006055831909179688,96
306,1455730942.80047774314880371094,96
307,1455730942.85006189346313476562,96
308,1455730942.900390625,96
309,1455730942.95088958740234375,96
310,1455730943.000415802001953125,96
311,1455730943.05099987983703613281,96
312,1455730943.10038733482360839844,96
313,1455730943.15088653564453125,96
314,1455730943.20043134689331054688,96
315,1455730943.25089097023010253906,96
316,1455730943.30055189132690429688,96
317,1455730943.35101079940795898438,96
318,1455730943.400547027587890625,96
319,1455730943.45103907585144042969,96
320,1455730943.5005855560302734375,96
321,1455730943.55095076560974121094,96
322,1455730943.60035109519958496094,96
323,1455730943.65092444419860839844,96
324,1455730943.7004146575927734375,96
325,1455730943.75109553337097167969,96
326,1455730943.80047655105590820312,96
327,1455730943.85109353065490722656,96
328,1455730943.90054488182067871094,96
329,1455730943.95097446441650390625,96
330,1455730944.0004119873046875,96
331,1455730944.0507946014404296875,96
332,1455730944.10036969184875488281,96
333,1455730944.15071463584899902344,96
334,1455730944.20040082931518554688,96
335,1455730944.25082421302795410156,96
336,1455730944.30026006698608398438,96
337,1455730944.35072350502014160156,96
338,1455730944.40117788314819335938,96
339,1455730944.45059227943420410156,96
340,1455730944.50103282928466796875,96
341,1455730944.55068945884704589844,96
342,1455730944.60002565383911132812,96
343,1455730944.65067124366760253906,96
344,1455730944.70005750656127929688,96
345,1455730944.75053715705871582031,96
346,1455730944.80100655555725097656,96
347,1455730944.85042715072631835938,96
348,1455730944.900783538818359375,96
349,1455730944.95002532005310058594,96
350,1455730945.00067019462585449219,96
351,1455730945.05104756355285644531,96
352,1455730945.1005001068115234375,96
353,1455730945.1509342193603515625,96
354,1455730945.20044970512390136719,96
355,1455730945.24997401237487792969,96
356,1455730945.30050539970397949219,96
357,1455730945.35101866722106933594,96
358,1455730945.40040254592895507812,96
359,1455730945.45003604888916015625,96
360,1455730945.50037646293640136719,96
361,1455730945.55092668533325195312,96
362,1455730945.60026240348815917969,96
363,1455730945.65072846412658691406,96
364,1455730945.70026326179504394531,96
365,1455730945.75074625015258789062,96
366,1455730945.80012011528015136719,96
367,1455730945.85058522224426269531,96
368,1455730945.90011692047119140625,96
369,1455730945.95059347152709960938,96
370,1455730946.00006127357482910156,96
371,1455730946.05048966407775878906,96
372,1455730946.10107302665710449219,96
373,1455730946.1505107879638671875,96
374,1455730946.2011470794677734375,96
375,1455730946.2505950927734375,96
376,1455730946.30100846290588378906,96
377,1455730946.35060739517211914062,96
378,1455730946.40099120140075683594,96
379,1455730946.45061016082763671875,96
380,1455730946.50104403495788574219,96
381,1455730946.55055022239685058594,96
382,1455730946.60104465484619140625,96
383,1455730946.65067577362060546875,96
384,1455730946.70023894309997558594,96
385,1455730946.75068879127502441406,96
386,1455730946.80015325546264648438,96
387,1455730946.85060238838195800781,96
388,1455730946.90000987052917480469,96
389,1455730946.95047998428344726562,96
390,1455730947.00100970268249511719,96
391,1455730947.05035352706909179688,96
392,1455730947.10097241401672363281,96
393,1455730947.15047669410705566406,96
394,1455730947.20086622238159179688,96
395,1455730947.25058698654174804688,96
396,1455730947.3010196685791015625,96
397,1455730947.35061526298522949219,96
398,1455730947.40095758438110351562,96
399,1455730947.450592041015625,96
400,1455730947.50005698204040527344,96
401,1455730947.55070590972900390625,96
402,1455730947.60030794143676757812,96
403,1455730947.6508312225341796875,96
404,1455730947.70040583610534667969,96
405,1455730947.75080132484436035156,96
406,1455730947.80039334297180175781,96
407,1455730947.8509235382080078125,96
408,1455730947.90045881271362304688,96
409,1455730947.950901031494140625,96
410,1455730948.00048232078552246094,96
411,1455730948.05096602439880371094,96
412,1455730948.1003475189208984375,96
413,1455730948.15107560157775878906,96
414,1455730948.20067119598388671875,96
415,1455730948.25035619735717773438,96
416,1455730948.30076336860656738281,96
417,1455730948.35046935081481933594,96
418,1455730948.40095782279968261719,96
419,1455730948.45048403739929199219,96
420,1455730948.50091648101806640625,96
421,1455730948.55033755302429199219,96
422,1455730948.60095047950744628906,96
423,1455730948.65038251876831054688,96
424,1455730948.70101022720336914062,96
425,1455730948.75043153762817382812,96
426,1455730948.80106616020202636719,96
427,1455730948.85052490234375,96
428,1455730948.90095305442810058594,96
429,1455730948.95046114921569824219,96
430,1455730949.00089573860168457031,96
431,1455730949.05050158500671386719,96
432,1455730949.1009693145751953125,96
433,1455730949.15051746368408203125,96
434,1455730949.20095419883728027344,96
435,1455730949.25066876411437988281,96
436,1455730949.30105638504028320312,96
437,1455730949.35062170028686523438,96
438,1455730949.40105867385864257812,96
439,1455730949.45046091079711914062,96
440,1455730949.50106406211853027344,96
441,1455730949.55036258697509765625,96
442,1455730949.60096764564514160156,96
443,1455730949.65037560462951660156,96
444,1455730949.7009716033935546875,96
445,1455730949.75038027763366699219,96
446,1455730949.80082106590270996094,96
447,1455730949.85022330284118652344,96
448,1455730949.90064740180969238281,96
449,1455730949.95025777816772460938,96
450,1455730950.00058746337890625,96
451,1455730950.05106830596923828125,96
452,1455730950.10036993026733398438,96
453,1455730950.1509113311767578125,96
454,1455730950.20046734809875488281,96
455,1455730950.25109362602233886719,96
456,1455730950.30050230026245117188,96
457,1455730950.35095310211181640625,96
458,1455730950.40051245689392089844,96
459,1455730950.45094370841979980469,96
460,1455730950.500499725341796875,96
461,1455730950.550930023193359375,96
462,1455730950.60044455528259277344,96
463,1455730950.65082049369812011719,96
464,1455730950.7002468109130859375,96
465,1455730950.75073552131652832031,96
466,1455730950.80104756355285644531,96
467,1455730950.85051584243774414062,96
468,1455730950.90082097053527832031,96
469,1455730950.95043253898620605469,96
470,1455730951.00081324577331542969,96
471,1455730951.05029582977294921875,96
472,1455730951.10077071189880371094,96
473,1455730951.15018224716186523438,96
474,1455730951.20072722434997558594,96
475,1455730951.250179290771484375,96
476,1455730951.30072736740112304688,96
477,1455730951.35007476806640625,96
478,1455730951.40062355995178222656,96
479,1455730951.45010137557983398438,96
480,1455730951.50053119659423828125,96
481,1455730951.55095696449279785156,96
482,1455730951.60047650337219238281,96
483,1455730951.6509685516357421875,96
484,1455730951.70033693313598632812,96
485,1455730951.75091218948364257812,96
486,1455730951.80033612251281738281,96
487,1455730951.85105800628662109375,96
488,1455730951.90045285224914550781,96
489,1455730951.95091938972473144531,96
490,1455730952.00037789344787597656,96
491,1455730952.05089426040649414062,96
492,1455730952.10028529167175292969,96
493,1455730952.1506404876708984375,96
494,1455730952.20010733604431152344,96
495,1455730952.25045418739318847656,96
496,1455730952.30101704597473144531,96
497,1455730952.35034894943237304688,96
498,1455730952.40081191062927246094,96
499,1455730952.45006990432739257812,96
500,1455730952.50049042701721191406,96
501,1455730952.55095744132995605469,96
502,1455730952.6002960205078125,96
503,1455730952.65108323097229003906,96
504,1455730952.70053362846374511719,96
505,1455730952.75003743171691894531,96
506,1455730952.8003635406494140625,96
507,1455730952.85100340843200683594,96
508,1455730952.90042996406555175781,96
509,1455730952.95090222358703613281,96
510,1455730953.00035834312438964844,96
511,1455730953.05078530311584472656,96
512,1455730953.1004467010498046875,96
513,1455730953.15078783035278320312,96
514,1455730953.20045995712280273438,96
515,1455730953.25090909004211425781,96
516,1455730953.30039167404174804688,96
517,1455730953.35096263885498046875,96
