id, time (s), size (bits)
0,1455648199.48383879661560058594,384
1,1455648199.52200055122375488281,392
2,1455648199.57144808769226074219,392
3,1455648199.62208580970764160156,392
4,1455648199.67148613929748535156,392
5,1455648199.72211909294128417969,400
6,1455648199.77168679237365722656,400
7,1455648199.82209014892578125,408
8,1455648199.87179970741271972656,408
9,1455648199.92111086845397949219,408
10,1455648199.97146391868591308594,416
11,1455648200.02168774604797363281,416
12,1455648200.07213616371154785156,416
13,1455648200.12144827842712402344,424
14,1455648200.17169475555419921875,424
15,1455648200.221019744873046875,432
16,1455648200.27127528190612792969,432
17,1455648200.32192921638488769531,440
18,1455648200.37127661705017089844,440
19,1455648200.42169141769409179688,448
20,1455648200.47197604179382324219,448
21,1455648200.5214481353759765625,456
22,1455648200.57170557975769042969,456
23,1455648200.62201142311096191406,464
24,1455648200.67132782936096191406,464
25,1455648200.72161793708801269531,472
26,1455648200.77094221115112304688,472
27,1455648200.82125711441040039062,480
28,1455648200.87184286117553710938,480
29,1455648200.92148327827453613281,488
30,1455648200.97200417518615722656,488
31,1455648201.0220623016357421875,496
32,1455648201.07157969474792480469,496
33,1455648201.12133860588073730469,504
34,1455648201.17176413536071777344,504
35,1455648201.22160387039184570312,512
36,1455648201.27161836624145507812,512
37,1455648201.3212871551513671875,520
38,1455648201.37189555168151855469,520
39,1455648201.42168521881103515625,528
40,1455648201.47133111953735351562,528
41,1455648201.52198290824890136719,536
42,1455648201.5714931488037109375,536
43,1455648201.621929168701171875,544
44,1455648201.67161464691162109375,544
45,1455648201.72101521492004394531,552
46,1455648201.77157616615295410156,552
47,1455648201.82203316688537597656,560
48,1455648201.87175393104553222656,560
49,1455648201.92120814323425292969,560
50,1455648201.97174715995788574219,568
51,1455648202.02135825157165527344,568
52,1455648202.07194113731384277344,576
53,1455648202.121623992919921875,576
54,1455648202.1709728240966796875,576
55,1455648202.22159123420715332031,584
56,1455648202.27204227447509765625,584
57,1455648202.32155752182006835938,584
58,1455648202.37196850776672363281,592
59,1455648202.42156004905700683594,592
60,1455648202.47198176383972167969,592
61,1455648202.52137017250061035156,600
62,1455648202.5719089508056640625,600
63,1455648202.62138080596923828125,600
64,1455648202.67197847366333007812,600
65,1455648202.72165846824645996094,600
66,1455648202.7711811065673828125,608
67,1455648202.82163357734680175781,608
68,1455648202.87119531631469726562,608
69,1455648202.92158961296081542969,608
70,1455648202.97192335128784179688,608
71,1455648203.0216693878173828125,608
72,1455648203.07119917869567871094,608
73,1455648203.12176513671875,608
74,1455648203.17102956771850585938,608
75,1455648203.22158288955688476562,608
76,1455648203.27202916145324707031,608
77,1455648203.32156324386596679688,608
78,1455648203.371990203857421875,608
79,1455648203.42137098312377929688,608
80,1455648203.47188591957092285156,608
81,1455648203.52126717567443847656,608
82,1455648203.57175731658935546875,608
83,1455648203.62120413780212402344,608
84,1455648203.67175364494323730469,608
85,1455648203.72121262550354003906,608
86,1455648203.77173757553100585938,608
87,1455648203.82108068466186523438,600
88,1455648203.87165713310241699219,600
89,1455648203.9213199615478515625,600
90,1455648203.97165942192077636719,600
91,1455648204.02133250236511230469,592
92,1455648204.07191109657287597656,592
93,1455648204.121616363525390625,592
94,1455648204.17093825340270996094,592
95,1455648204.22149062156677246094,584
96,1455648204.27204298973083496094,584
97,1455648204.32145738601684570312,576
98,1455648204.3719844818115234375,576
99,1455648204.42136836051940917969,576
100,1455648204.47184348106384277344,568
101,1455648204.5212383270263671875,568
102,1455648204.5718631744384765625,568
103,1455648204.62140583992004394531,560
104,1455648204.672069549560546875,560
105,1455648204.721462249755859375,552
106,1455648204.77198839187622070312,552
107,1455648204.82153010368347167969,544
108,1455648204.87189030647277832031,544
109,1455648204.92140817642211914062,536
110,1455648204.97164773941040039062,536
111,1455648205.02129673957824707031,528
112,1455648205.071895599365234375,528
113,1455648205.12145328521728515625,520
114,1455648205.17180967330932617188,520
115,1455648205.22119903564453125,512
116,1455648205.27177667617797851562,512
117,1455648205.32125353813171386719,504
118,1455648205.37176370620727539062,504
119,1455648205.42116379737854003906,496
120,1455648205.47175502777099609375,496
121,1455648205.5211887359619140625,488
122,1455648205.57169294357299804688,488
123,1455648205.620998382568359375,480
124,1455648205.67139410972595214844,480
125,1455648205.72191143035888671875,472
126,1455648205.77160787582397460938,472
127,1455648205.82121539115905761719,464
128,1455648205.87170815467834472656,464
129,1455648205.92180418968200683594,456
130,1455648205.97125339508056640625,456
131,1455648206.02198171615600585938,448
132,1455648206.07161474227905273438,448
133,1455648206.12202000617980957031,440
134,1455648206.17152452468872070312,440
135,1455648206.22194004058837890625,432
136,1455648206.27154636383056640625,432
137,1455648206.32186484336853027344,424
138,1455648206.37142181396484375,424
139,1455648206.42174363136291503906,424
140,1455648206.47115325927734375,416
141,1455648206.52157187461853027344,416
142,1455648206.57186937332153320312,408
143,1455648206.62146496772766113281,408
144,1455648206.67176222801208496094,408
145,1455648206.72137951850891113281,400
146,1455648206.77177572250366210938,400
147,1455648206.82115674018859863281,400
148,1455648206.87157440185546875,392
149,1455648206.92208123207092285156,392
150,1455648206.97144150733947753906,392
151,1455648207.0220050811767578125,384
152,1455648207.07183694839477539062,384
153,1455648207.12128138542175292969,384
154,1455648207.17189812660217285156,384
155,1455648207.22124958038330078125,384
156,1455648207.27180123329162597656,376
157,1455648207.32115912437438964844,376
158,1455648207.3717479705810546875,376
159,1455648207.42117166519165039062,376
160,1455648207.47152590751647949219,376
161,1455648207.5210323333740234375,376
162,1455648207.57139301300048828125,376
163,1455648207.62199234962463378906,376
164,1455648207.67138195037841796875,376
165,1455648207.72189211845397949219,376
166,1455648207.77131390571594238281,376
167,1455648207.82188105583190917969,376
168,1455648207.87134194374084472656,376
169,1455648207.92163777351379394531,376
170,1455648207.97126293182373046875,376
171,1455648208.02170276641845703125,376
172,1455648208.07106494903564453125,376
173,1455648208.12155938148498535156,376
174,1455648208.17204713821411132812,376
175,1455648208.22140383720397949219,376
176,1455648208.27198719978332519531,376
177,1455648208.3214244842529296875,384
178,1455648208.37177181243896484375,384
179,1455648208.42139530181884765625,384
180,1455648208.47175669670104980469,384
181,1455648208.52127718925476074219,392
182,1455648208.57165265083312988281,392
183,1455648208.62216949462890625,392
184,1455648208.6716213226318359375,392
185,1455648208.72212958335876464844,400
186,1455648208.77159023284912109375,400
187,1455648208.821926116943359375,408
188,1455648208.87158632278442382812,408
189,1455648208.92201375961303710938,408
190,1455648208.97144746780395507812,416
191,1455648209.02187418937683105469,416
192,1455648209.07127809524536132812,416
193,1455648209.12166333198547363281,424
194,1455648209.17215871810913085938,424
195,1455648209.22147655487060546875,432
196,1455648209.27200603485107421875,432
197,1455648209.32171320915222167969,440
198,1455648209.37095713615417480469,440
199,1455648209.42146801948547363281,448
200,1455648209.47181153297424316406,448
201,1455648209.52136754989624023438,456
202,1455648209.57177567481994628906,456
203,1455648209.62129712104797363281,464
204,1455648209.6716556549072265625,464
205,1455648209.72098088264465332031,472
206,1455648209.77172398567199707031,472
207,1455648209.82121491432189941406,480
208,1455648209.87187266349792480469,480
209,1455648209.92138195037841796875,488
210,1455648209.97186994552612304688,488
211,1455648210.02139544486999511719,496
212,1455648210.0721950531005859375,496
213,1455648210.12167501449584960938,504
214,1455648210.17096757888793945312,504
215,1455648210.22149801254272460938,512
216,1455648210.27190923690795898438,512
217,1455648210.32154750823974609375,520
218,1455648210.37190485000610351562,520
219,1455648210.42150545120239257812,528
220,1455648210.47187709808349609375,528
221,1455648210.52143120765686035156,536
222,1455648210.57188439369201660156,536
223,1455648210.62130475044250488281,544
224,1455648210.67174935340881347656,544
225,1455648210.72117400169372558594,552
226,1455648210.77174139022827148438,552
227,1455648210.82097744941711425781,560
228,1455648210.87152123451232910156,560
229,1455648210.92195582389831542969,568
230,1455648210.97150778770446777344,568
231,1455648211.02214503288269042969,568
232,1455648211.07141041755676269531,576
233,1455648211.12197542190551757812,576
234,1455648211.1713275909423828125,576
235,1455648211.22182798385620117188,584
236,1455648211.27122855186462402344,584
237,1455648211.32174229621887207031,584
238,1455648211.37101149559020996094,592
239,1455648211.42156076431274414062,592
240,1455648211.47200131416320800781,592
241,1455648211.5213375091552734375,600
242,1455648211.57184267044067382812,600
243,1455648211.62127017974853515625,600
244,1455648211.67169618606567382812,600
245,1455648211.72100853919982910156,600
246,1455648211.7715816497802734375,608
247,1455648211.82202267646789550781,608
248,1455648211.8715610504150390625,608
249,1455648211.92202448844909667969,608
250,1455648211.97134280204772949219,608
251,1455648212.02213740348815917969,608
252,1455648212.07185578346252441406,608
253,1455648212.12143659591674804688,608
254,1455648212.17174530029296875,608
255,1455648212.22140002250671386719,608
256,1455648212.27187061309814453125,608
257,1455648212.32135224342346191406,608
258,1455648212.37177896499633789062,608
259,1455648212.42126059532165527344,608
260,1455648212.4718227386474609375,608
261,1455648212.52124500274658203125,608
262,1455648212.57174754142761230469,608
263,1455648212.6209735870361328125,608
264,1455648212.67154717445373535156,608
265,1455648212.72197389602661132812,608
266,1455648212.77146100997924804688,608
267,1455648212.82188129425048828125,600
268,1455648212.87127447128295898438,600
269,1455648212.92173790931701660156,600
270,1455648212.9710483551025390625,600
271,1455648213.02174687385559082031,592
272,1455648213.07134461402893066406,592
273,1455648213.12199497222900390625,592
274,1455648213.17141199111938476562,592
275,1455648213.22190165519714355469,584
276,1455648213.27131128311157226562,584
277,1455648213.32171559333801269531,576
278,1455648213.37127661705017089844,576
279,1455648213.42163515090942382812,576
280,1455648213.47121143341064453125,568
281,1455648213.52164244651794433594,568
282,1455648213.57215452194213867188,568
283,1455648213.62170672416687011719,560
284,1455648213.67109084129333496094,560
285,1455648213.72150444984436035156,552
286,1455648213.77193236351013183594,552
287,1455648213.82152581214904785156,544
288,1455648213.87198209762573242188,544
289,1455648213.92160868644714355469,536
290,1455648213.97199702262878417969,536
291,1455648214.02168536186218261719,528
292,1455648214.07136011123657226562,528
293,1455648214.12187266349792480469,520
294,1455648214.17130208015441894531,520
295,1455648214.22169923782348632812,512
296,1455648214.27132320404052734375,512
297,1455648214.32173061370849609375,504
298,1455648214.37135004997253417969,504
299,1455648214.42171406745910644531,496
300,1455648214.47115230560302734375,496
301,1455648214.52158975601196289062,488
302,1455648214.57201647758483886719,488
303,1455648214.62152886390686035156,480
304,1455648214.6719074249267578125,480
305,1455648214.72139191627502441406,472
306,1455648214.77181196212768554688,472
307,1455648214.8214092254638671875,464
308,1455648214.87178754806518554688,464
309,1455648214.92131876945495605469,456
310,1455648214.97176384925842285156,456
311,1455648215.02158069610595703125,448
312,1455648215.07106924057006835938,448
313,1455648215.12152743339538574219,440
314,1455648215.17098283767700195312,440
315,1455648215.22138071060180664062,432
316,1455648215.27202010154724121094,432
317,1455648215.3214168548583984375,424
318,1455648215.37191629409790039062,424
319,1455648215.42130827903747558594,424
320,1455648215.47178196907043457031,416
321,1455648215.52120876312255859375,416
322,1455648215.57158350944519042969,408
323,1455648215.62099957466125488281,408
324,1455648215.67142391204833984375,408
325,1455648215.72202920913696289062,400
326,1455648215.77144837379455566406,400
327,1455648215.82203173637390136719,400
328,1455648215.87146687507629394531,392
329,1455648215.92194676399230957031,392
330,1455648215.97130799293518066406,392
331,1455648216.02190279960632324219,384
332,1455648216.07183814048767089844,384
333,1455648216.12128281593322753906,384
334,1455648216.1717357635498046875,384
335,1455648216.22107577323913574219,384
336,1455648216.27158045768737792969,376
337,1455648216.32193994522094726562,376
338,1455648216.37144398689270019531,376
339,1455648216.42194795608520507812,376
340,1455648216.47127223014831542969,376
341,1455648216.52195405960083007812,376
342,1455648216.57130718231201171875,376
343,1455648216.62185072898864746094,376
344,1455648216.67123317718505859375,376
345,1455648216.72172784805297851562,376
346,1455648216.77160477638244628906,376
347,1455648216.82206773757934570312,376
348,1455648216.87152433395385742188,376
349,1455648216.92191767692565917969,376
350,1455648216.97150182723999023438,376
351,1455648217.02203464508056640625,376
352,1455648217.07153797149658203125,376
353,1455648217.12191152572631835938,376
354,1455648217.17141747474670410156,376
355,1455648217.22179245948791503906,376
356,1455648217.271289825439453125,376
357,1455648217.3217182159423828125,384
358,1455648217.3709869384765625,384
359,1455648217.42161989212036132812,384
360,1455648217.47098493576049804688,384
361,1455648217.52153563499450683594,392
362,1455648217.57186627388000488281,392
363,1455648217.62140250205993652344,392
364,1455648217.67174625396728515625,392
365,1455648217.72118592262268066406,400
366,1455648217.77167749404907226562,400
367,1455648217.82099819183349609375,408
368,1455648217.87169194221496582031,408
369,1455648217.92109704017639160156,408
370,1455648217.97161650657653808594,416
371,1455648218.02201294898986816406,416
372,1455648218.07149410247802734375,416
373,1455648218.12187600135803222656,424
374,1455648218.17142057418823242188,424
375,1455648218.22189354896545410156,432
376,1455648218.27128434181213378906,432
377,1455648218.32182407379150390625,440
378,1455648218.37124752998352050781,440
379,1455648218.4216766357421875,448
380,1455648218.47103428840637207031,448
381,1455648218.52151250839233398438,456
382,1455648218.57188749313354492188,456
383,1455648218.62149262428283691406,464
384,1455648218.6719684600830078125,464
385,1455648218.72132563591003417969,472
386,1455648218.77191901206970214844,472
387,1455648218.82130575180053710938,480
388,1455648218.87190485000610351562,480
389,1455648218.92137265205383300781,488
390,1455648218.97186303138732910156,488
391,1455648219.02137517929077148438,496
392,1455648219.07219767570495605469,496
393,1455648219.12167525291442871094,504
394,1455648219.17096543312072753906,504
395,1455648219.22149229049682617188,512
396,1455648219.27191090583801269531,512
397,1455648219.32143831253051757812,520
398,1455648219.37180113792419433594,520
399,1455648219.42133498191833496094,528
400,1455648219.47172904014587402344,528
401,1455648219.52120256423950195312,536
402,1455648219.57164883613586425781,536
403,1455648219.62203454971313476562,544
404,1455648219.67161011695861816406,544
405,1455648219.72201204299926757812,552
406,1455648219.77160167694091796875,552
407,1455648219.82199621200561523438,560
408,1455648219.87172698974609375,560
409,1455648219.92114877700805664062,560
410,1455648219.97164034843444824219,568
411,1455648220.02109956741333007812,568
412,1455648220.07169389724731445312,576
413,1455648220.12139391899108886719,576
414,1455648220.17192006111145019531,576
415,1455648220.22143507003784179688,584
416,1455648220.27189540863037109375,584
417,1455648220.32157826423645019531,584
418,1455648220.3719997406005859375,592
419,1455648220.42149472236633300781,592
420,1455648220.47192311286926269531,592
421,1455648220.52128577232360839844,600
422,1455648220.57180929183959960938,600
423,1455648220.62124228477478027344,600
424,1455648220.67169189453125,600
425,1455648220.72100281715393066406,600
426,1455648220.77162337303161621094,608
427,1455648220.82199549674987792969,608
428,1455648220.87158894538879394531,608
429,1455648220.92204427719116210938,608
430,1455648220.97137212753295898438,608
431,1455648221.02207064628601074219,608
432,1455648221.07165503501892089844,608
433,1455648221.12125325202941894531,608
434,1455648221.17156338691711425781,608
435,1455648221.22215127944946289062,608
436,1455648221.27161240577697753906,608
437,1455648221.32205677032470703125,608
438,1455648221.37148833274841308594,608
439,1455648221.4217853546142578125,608
440,1455648221.47129988670349121094,608
441,1455648221.52172398567199707031,608
442,1455648221.57117581367492675781,608
443,1455648221.62156319618225097656,608
444,1455648221.67216396331787109375,608
445,1455648221.72151708602905273438,608
446,1455648221.7720966339111328125,608
447,1455648221.82157278060913085938,600
448,1455648221.87193179130554199219,600
449,1455648221.92146944999694824219,600
450,1455648221.97187328338623046875,600
451,1455648222.02162647247314453125,592
452,1455648222.07137298583984375,592
453,1455648222.12196111679077148438,592
454,1455648222.171360015869140625,592
455,1455648222.22185659408569335938,584
456,1455648222.27136874198913574219,584
457,1455648222.32174038887023925781,576
458,1455648222.37131333351135253906,576
459,1455648222.42170810699462890625,576
460,1455648222.47132730484008789062,568
461,1455648222.52181506156921386719,568
462,1455648222.57130265235900878906,568
463,1455648222.62181043624877929688,560
464,1455648222.67206692695617675781,560
465,1455648222.72168588638305664062,552
466,1455648222.77098488807678222656,552
467,1455648222.82154679298400878906,544
468,1455648222.87190508842468261719,544
469,1455648222.92150139808654785156,536
470,1455648222.97187209129333496094,536
471,1455648223.02158379554748535156,528
472,1455648223.07099223136901855469,528
473,1455648223.1215362548828125,520
474,1455648223.17198514938354492188,520
475,1455648223.22128796577453613281,512
476,1455648223.27186226844787597656,512
477,1455648223.32118296623229980469,504
478,1455648223.37180280685424804688,504
479,1455648223.4211902618408203125,496
480,1455648223.47171854972839355469,496
481,1455648223.52102041244506835938,488
482,1455648223.57149600982666015625,488
483,1455648223.62188625335693359375,480
484,1455648223.67134451866149902344,480
485,1455648223.72185111045837402344,472
486,1455648223.77124667167663574219,472
487,1455648223.82190823554992675781,464
488,1455648223.87138247489929199219,464
489,1455648223.92180228233337402344,456
490,1455648223.97121739387512207031,456
491,1455648224.02444624900817871094,448
492,1455648224.07116746902465820312,448
493,1455648224.12163519859313964844,440
494,1455648224.17136788368225097656,440
495,1455648224.22178053855895996094,432
496,1455648224.27131962776184082031,432
497,1455648224.32166409492492675781,424
498,1455648224.37114119529724121094,424
499,1455648224.42145514488220214844,424
500,1455648224.47192549705505371094,416
501,1455648224.52134084701538085938,416
502,1455648224.57171845436096191406,408
503,1455648224.62139868736267089844,408
