id, time (s), size (bits)
0,1455648197.5826663970947265625,408
1,1455648197.63261103630065917969,408
2,1455648197.68328356742858886719,400
3,1455648197.73278737068176269531,400
4,1455648197.78324961662292480469,400
5,1455648197.83254909515380859375,392
6,1455648197.88307046890258789062,392
7,1455648197.93248915672302246094,392
8,1455648197.98314881324768066406,392
9,1455648198.03263497352600097656,384
10,1455648198.08231186866760253906,384
11,1455648198.13258624076843261719,384
12,1455648198.18292951583862304688,384
13,1455648198.23216462135314941406,376
14,1455648198.28266692161560058594,376
15,1455648198.33314871788024902344,376
16,1455648198.38243722915649414062,376
17,1455648198.43290972709655761719,376
18,1455648198.48207139968872070312,376
19,1455648198.53235888481140136719,376
20,1455648198.58255219459533691406,376
21,1455648198.63291645050048828125,376
22,1455648198.68303036689758300781,376
23,1455648198.73243093490600585938,376
24,1455648198.78261661529541015625,376
25,1455648198.83278512954711914062,376
26,1455648198.88205933570861816406,376
27,1455648198.93225407600402832031,376
28,1455648198.98255610466003417969,376
29,1455648199.03275346755981445312,376
30,1455648199.08305954933166503906,376
31,1455648199.13235998153686523438,376
32,1455648199.18263483047485351562,376
33,1455648199.23298692703247070312,376
34,1455648199.28202128410339355469,384
35,1455648199.33238530158996582031,384
36,1455648199.38259983062744140625,384
37,1455648199.43290758132934570312,384
38,1455648199.48211836814880371094,384
39,1455648199.53244447708129882812,392
40,1455648199.58268761634826660156,392
41,1455648199.63300228118896484375,392
42,1455648199.68210649490356445312,400
43,1455648199.73224902153015136719,400
44,1455648199.78260493278503417969,400
45,1455648199.83278250694274902344,408
46,1455648199.88305592536926269531,408
47,1455648199.93209815025329589844,408
48,1455648199.98239350318908691406,416
49,1455648200.03253293037414550781,416
50,1455648200.08292818069458007812,424
51,1455648200.13206338882446289062,424
52,1455648200.18226599693298339844,424
53,1455648200.23252010345458984375,432
54,1455648200.28264069557189941406,432
55,1455648200.33305788040161132812,440
56,1455648200.38233518600463867188,440
57,1455648200.43582797050476074219,448
58,1455648200.48215913772583007812,448
59,1455648200.53264975547790527344,456
60,1455648200.5830173492431640625,456
61,1455648200.63227796554565429688,464
62,1455648200.68275213241577148438,464
63,1455648200.7330074310302734375,472
64,1455648200.78231048583984375,472
65,1455648200.83290314674377441406,480
66,1455648200.88239574432373046875,480
67,1455648200.93263363838195800781,488
68,1455648200.98314118385314941406,488
69,1455648201.03261399269104003906,496
70,1455648201.08310914039611816406,496
71,1455648201.13285112380981445312,504
72,1455648201.18322014808654785156,504
73,1455648201.23283672332763671875,512
74,1455648201.2823352813720703125,512
75,1455648201.33305716514587402344,520
76,1455648201.38263154029846191406,520
77,1455648201.43334245681762695312,528
78,1455648201.482898712158203125,528
79,1455648201.53242444992065429688,536
80,1455648201.58296799659729003906,536
81,1455648201.63239550590515136719,544
82,1455648201.68285512924194335938,544
83,1455648201.73233532905578613281,552
84,1455648201.78294658660888671875,552
85,1455648201.83231759071350097656,560
86,1455648201.88295006752014160156,560
87,1455648201.93246555328369140625,568
88,1455648201.98285341262817382812,568
89,1455648202.03255820274353027344,568
90,1455648202.08319377899169921875,576
91,1455648202.13283205032348632812,576
92,1455648202.18213701248168945312,584
93,1455648202.23273324966430664062,584
94,1455648202.28322577476501464844,584
95,1455648202.33290624618530273438,592
96,1455648202.38246560096740722656,592
97,1455648202.43282008171081542969,592
98,1455648202.48241400718688964844,592
99,1455648202.53284168243408203125,600
100,1455648202.58223557472229003906,600
101,1455648202.63278675079345703125,600
102,1455648202.6834564208984375,600
103,1455648202.73293280601501464844,608
104,1455648202.78258299827575683594,608
105,1455648202.8330230712890625,608
106,1455648202.882476806640625,608
107,1455648202.93295764923095703125,608
108,1455648202.98228788375854492188,608
109,1455648203.03296017646789550781,608
110,1455648203.08267140388488769531,608
111,1455648203.13334941864013671875,608
112,1455648203.18277668952941894531,608
113,1455648203.23327803611755371094,608
114,1455648203.28275537490844726562,608
115,1455648203.333095550537109375,608
116,1455648203.38269662857055664062,608
117,1455648203.43305206298828125,608
118,1455648203.48255968093872070312,608
119,1455648203.53311228752136230469,608
120,1455648203.58266448974609375,608
121,1455648203.63310480117797851562,608
122,1455648203.68267846107482910156,608
123,1455648203.73309254646301269531,608
124,1455648203.78246855735778808594,600
125,1455648203.833019256591796875,600
126,1455648203.88244748115539550781,600
127,1455648203.93305730819702148438,600
128,1455648203.98248124122619628906,600
129,1455648204.03275275230407714844,592
130,1455648204.08222270011901855469,592
131,1455648204.13278746604919433594,592
132,1455648204.18229961395263671875,584
133,1455648204.23266291618347167969,584
134,1455648204.2821521759033203125,584
135,1455648204.33264327049255371094,576
136,1455648204.38236737251281738281,576
137,1455648204.43270826339721679688,576
138,1455648204.48322725296020507812,568
139,1455648204.53266072273254394531,568
140,1455648204.58313250541687011719,560
141,1455648204.63259339332580566406,560
142,1455648204.68290567398071289062,560
143,1455648204.73247742652893066406,552
144,1455648204.78297352790832519531,552
145,1455648204.83254885673522949219,544
146,1455648204.88293123245239257812,544
147,1455648204.93246197700500488281,536
148,1455648204.98288893699645996094,536
149,1455648205.03244876861572265625,528
150,1455648205.08305644989013671875,528
151,1455648205.13252282142639160156,520
152,1455648205.18317413330078125,520
153,1455648205.23249721527099609375,512
154,1455648205.28316974639892578125,512
155,1455648205.33263158798217773438,504
156,1455648205.3831539154052734375,504
157,1455648205.43256783485412597656,496
158,1455648205.48302412033081054688,496
159,1455648205.53245139122009277344,488
160,1455648205.58284544944763183594,488
161,1455648205.63242983818054199219,480
162,1455648205.68281388282775878906,480
163,1455648205.73243498802185058594,472
164,1455648205.7829418182373046875,472
165,1455648205.83230924606323242188,464
166,1455648205.88284134864807128906,464
167,1455648205.93227243423461914062,456
168,1455648205.98271203041076660156,456
169,1455648206.033321380615234375,448
170,1455648206.08315157890319824219,448
171,1455648206.13258242607116699219,440
172,1455648206.18322801589965820312,440
173,1455648206.23255562782287597656,432
174,1455648206.28323674201965332031,432
175,1455648206.332683563232421875,424
176,1455648206.38324761390686035156,424
177,1455648206.43268084526062011719,416
178,1455648206.48307490348815917969,416
179,1455648206.53265810012817382812,416
180,1455648206.58304047584533691406,408
181,1455648206.63260579109191894531,408
182,1455648206.68289732933044433594,400
183,1455648206.73236441612243652344,400
184,1455648206.782878875732421875,400
185,1455648206.83224081993103027344,392
186,1455648206.88250780105590820312,392
187,1455648206.93283963203430175781,392
188,1455648206.98251557350158691406,392
189,1455648207.03307819366455078125,384
190,1455648207.08292412757873535156,384
191,1455648207.13238549232482910156,384
192,1455648207.18284845352172851562,384
193,1455648207.23220562934875488281,376
194,1455648207.28263044357299804688,376
195,1455648207.333065032958984375,376
196,1455648207.38248753547668457031,376
197,1455648207.433139801025390625,376
198,1455648207.48250055313110351562,376
199,1455648207.53315687179565429688,376
200,1455648207.58252024650573730469,376
201,1455648207.63308119773864746094,376
202,1455648207.68257093429565429688,376
203,1455648207.73304653167724609375,376
204,1455648207.78245878219604492188,376
205,1455648207.83281373977661132812,376
206,1455648207.8825321197509765625,376
207,1455648207.9329853057861328125,376
208,1455648207.98256564140319824219,376
209,1455648208.0331134796142578125,376
210,1455648208.08271360397338867188,376
211,1455648208.133090972900390625,376
212,1455648208.18277382850646972656,376
213,1455648208.23219513893127441406,376
214,1455648208.28249263763427734375,384
215,1455648208.33309841156005859375,384
216,1455648208.38261914253234863281,384
217,1455648208.43318891525268554688,384
218,1455648208.48252010345458984375,384
219,1455648208.533168792724609375,392
220,1455648208.58262538909912109375,392
221,1455648208.63321566581726074219,392
222,1455648208.68264007568359375,400
223,1455648208.73301172256469726562,400
224,1455648208.78253698348999023438,400
225,1455648208.83289337158203125,408
226,1455648208.88244795799255371094,408
227,1455648208.93278408050537109375,408
228,1455648208.98330068588256835938,416
229,1455648209.0326786041259765625,416
230,1455648209.08323383331298828125,424
231,1455648209.13272237777709960938,424
232,1455648209.1831207275390625,424
233,1455648209.23258233070373535156,432
234,1455648209.28311038017272949219,432
235,1455648209.33261919021606445312,440
236,1455648209.38300609588623046875,440
237,1455648209.43251156806945800781,448
238,1455648209.48286867141723632812,448
239,1455648209.53234767913818359375,456
240,1455648209.58281469345092773438,456
241,1455648209.63212800025939941406,464
242,1455648209.68269062042236328125,464
243,1455648209.73304629325866699219,472
244,1455648209.78257274627685546875,472
245,1455648209.83294034004211425781,480
246,1455648209.88246774673461914062,480
247,1455648209.93287587165832519531,488
248,1455648209.98232221603393554688,488
249,1455648210.03288435935974121094,496
250,1455648210.08240413665771484375,496
251,1455648210.13300323486328125,504
252,1455648210.18247246742248535156,504
253,1455648210.2329845428466796875,512
254,1455648210.28244161605834960938,512
255,1455648210.33312439918518066406,520
256,1455648210.38259434700012207031,520
257,1455648210.43305945396423339844,528
258,1455648210.4825191497802734375,528
259,1455648210.53292346000671386719,536
260,1455648210.58247900009155273438,536
261,1455648210.63291072845458984375,544
262,1455648210.68253374099731445312,544
263,1455648210.73290896415710449219,552
264,1455648210.78249216079711914062,552
265,1455648210.83292722702026367188,560
266,1455648210.88238739967346191406,560
267,1455648210.93282055854797363281,568
268,1455648210.98215651512145996094,568
269,1455648211.03285980224609375,568
270,1455648211.08238983154296875,576
271,1455648211.13299107551574707031,576
272,1455648211.18248200416564941406,584
273,1455648211.23303294181823730469,584
274,1455648211.282436370849609375,584
275,1455648211.33297753334045410156,592
276,1455648211.38240838050842285156,592
277,1455648211.43281292915344238281,592
278,1455648211.48238229751586914062,592
279,1455648211.53278398513793945312,600
280,1455648211.58219027519226074219,600
281,1455648211.63271427154541015625,600
282,1455648211.6834259033203125,600
283,1455648211.73292875289916992188,608
284,1455648211.78239941596984863281,608
285,1455648211.8328227996826171875,608
286,1455648211.88315415382385253906,608
287,1455648211.93270707130432128906,608
288,1455648211.9831066131591796875,608
289,1455648212.03284811973571777344,608
290,1455648212.08235716819763183594,608
291,1455648212.13293004035949707031,608
292,1455648212.18234109878540039062,608
293,1455648212.23280858993530273438,608
294,1455648212.28212881088256835938,608
295,1455648212.33259701728820800781,608
296,1455648212.38209700584411621094,608
297,1455648212.43248081207275390625,608
298,1455648212.48309803009033203125,608
299,1455648212.53245973587036132812,608
300,1455648212.58297133445739746094,608
301,1455648212.632427215576171875,608
302,1455648212.68286180496215820312,608
303,1455648212.73225927352905273438,608
304,1455648212.78257584571838378906,600
305,1455648212.83307504653930664062,600
306,1455648212.88247823715209960938,600
307,1455648212.93298172950744628906,600
308,1455648212.98240423202514648438,600
309,1455648213.03307175636291503906,592
310,1455648213.08281803131103515625,592
311,1455648213.13243865966796875,592
312,1455648213.18282794952392578125,584
313,1455648213.2321796417236328125,584
314,1455648213.28285479545593261719,584
315,1455648213.33320951461791992188,576
316,1455648213.38289475440979003906,576
317,1455648213.43240189552307128906,576
318,1455648213.48291683197021484375,568
319,1455648213.53221106529235839844,568
320,1455648213.58269786834716796875,560
321,1455648213.63240480422973632812,560
322,1455648213.68271875381469726562,560
323,1455648213.73219037055969238281,552
324,1455648213.78250527381896972656,552
325,1455648213.83307695388793945312,544
326,1455648213.88249921798706054688,544
327,1455648213.93295049667358398438,536
328,1455648213.98238825798034667969,536
329,1455648214.03301858901977539062,528
330,1455648214.08272385597229003906,528
331,1455648214.13310837745666503906,520
332,1455648214.18276357650756835938,520
333,1455648214.23313212394714355469,512
334,1455648214.282627105712890625,512
335,1455648214.33310556411743164062,504
336,1455648214.38274860382080078125,504
337,1455648214.43315672874450683594,496
338,1455648214.48261117935180664062,496
339,1455648214.53315305709838867188,488
340,1455648214.58252096176147460938,488
341,1455648214.63212156295776367188,480
342,1455648214.68248152732849121094,480
343,1455648214.732997894287109375,472
344,1455648214.78238511085510253906,472
345,1455648214.83287072181701660156,464
346,1455648214.88215780258178710938,464
347,1455648214.93264365196228027344,456
348,1455648214.9830837249755859375,456
349,1455648215.03256773948669433594,448
350,1455648215.08235669136047363281,448
351,1455648215.13280582427978515625,440
352,1455648215.18242740631103515625,440
353,1455648215.23282122611999511719,432
354,1455648215.28225779533386230469,432
355,1455648215.33269572257995605469,424
356,1455648215.38320088386535644531,424
357,1455648215.43263721466064453125,416
358,1455648215.48303747177124023438,416
359,1455648215.5326385498046875,416
360,1455648215.58302259445190429688,408
361,1455648215.63256716728210449219,408
362,1455648215.68288826942443847656,400
363,1455648215.73232102394104003906,400
364,1455648215.78267717361450195312,400
365,1455648215.83313250541687011719,392
366,1455648215.88258028030395507812,392
367,1455648215.93292689323425292969,392
368,1455648215.98255038261413574219,392
369,1455648216.03308939933776855469,384
370,1455648216.08290362358093261719,384
371,1455648216.13235974311828613281,384
372,1455648216.18284869194030761719,384
373,1455648216.23217940330505371094,376
374,1455648216.28268003463745117188,376
375,1455648216.33322548866271972656,376
376,1455648216.38283848762512207031,376
377,1455648216.43249773979187011719,376
378,1455648216.482875823974609375,376
379,1455648216.53236341476440429688,376
380,1455648216.58275437355041503906,376
381,1455648216.63328337669372558594,376
382,1455648216.68268561363220214844,376
383,1455648216.73321175575256347656,376
384,1455648216.78262591361999511719,376
385,1455648216.83297801017761230469,376
386,1455648216.88252615928649902344,376
387,1455648216.93282651901245117188,376
388,1455648216.98239755630493164062,376
389,1455648217.03289151191711425781,376
390,1455648217.082275390625,376
391,1455648217.13280344009399414062,376
392,1455648217.18233919143676757812,376
393,1455648217.23275613784790039062,376
394,1455648217.28320240974426269531,384
395,1455648217.33283638954162597656,384
396,1455648217.38211941719055175781,384
397,1455648217.43261671066284179688,384
398,1455648217.48300600051879882812,384
399,1455648217.53252530097961425781,392
400,1455648217.58292698860168457031,392
401,1455648217.63245368003845214844,392
402,1455648217.6828441619873046875,400
403,1455648217.73215460777282714844,400
404,1455648217.78276014328002929688,400
405,1455648217.8330669403076171875,408
406,1455648217.88260579109191894531,408
407,1455648217.93293857574462890625,408
408,1455648217.98259067535400390625,416
409,1455648218.03310942649841308594,416
410,1455648218.08259868621826171875,424
411,1455648218.13302659988403320312,424
412,1455648218.18248414993286132812,424
413,1455648218.23309183120727539062,432
414,1455648218.28256177902221679688,432
415,1455648218.33317708969116210938,440
416,1455648218.3826961517333984375,440
417,1455648218.43339133262634277344,448
418,1455648218.48310065269470214844,448
419,1455648218.53257584571838378906,456
420,1455648218.58300185203552246094,456
421,1455648218.63243889808654785156,464
422,1455648218.68289041519165039062,464
423,1455648218.73222613334655761719,472
424,1455648218.7828502655029296875,472
425,1455648218.83315443992614746094,480
426,1455648218.88280081748962402344,480
427,1455648218.93218564987182617188,488
428,1455648218.98269891738891601562,488
429,1455648219.03222703933715820312,496
430,1455648219.08281970024108886719,496
431,1455648219.13246464729309082031,504
432,1455648219.18279790878295898438,504
433,1455648219.23224949836730957031,512
434,1455648219.28255677223205566406,512
435,1455648219.33318257331848144531,520
436,1455648219.38265371322631835938,520
437,1455648219.43306040763854980469,528
438,1455648219.4825115203857421875,528
439,1455648219.53302168846130371094,536
440,1455648219.58263635635375976562,536
441,1455648219.63303446769714355469,544
442,1455648219.68254113197326660156,544
443,1455648219.73288989067077636719,552
444,1455648219.78238415718078613281,552
445,1455648219.83279967308044433594,560
446,1455648219.8832683563232421875,560
447,1455648219.93270730972290039062,568
448,1455648219.98308014869689941406,568
449,1455648220.03277111053466796875,568
450,1455648220.08220839500427246094,576
451,1455648220.13280510902404785156,576
452,1455648220.1831607818603515625,584
453,1455648220.2326908111572265625,584
454,1455648220.28319191932678222656,584
455,1455648220.33279109001159667969,592
456,1455648220.38216757774353027344,592
457,1455648220.43253779411315917969,592
458,1455648220.48306751251220703125,592
459,1455648220.53243517875671386719,600
460,1455648220.58304166793823242188,600
461,1455648220.63246583938598632812,600
462,1455648220.68294858932495117188,600
463,1455648220.73239493370056152344,608
464,1455648220.78290486335754394531,608
465,1455648220.8321514129638671875,608
466,1455648220.88265705108642578125,608
467,1455648220.9321727752685546875,608
468,1455648220.98254895210266113281,608
469,1455648221.03224420547485351562,608
470,1455648221.08282613754272460938,608
471,1455648221.13235998153686523438,608
472,1455648221.182712554931640625,608
473,1455648221.23319172859191894531,608
474,1455648221.28258013725280761719,608
475,1455648221.3329792022705078125,608
476,1455648221.38256907463073730469,608
477,1455648221.43288207054138183594,608
478,1455648221.48251628875732421875,608
479,1455648221.53303813934326171875,608
480,1455648221.58250904083251953125,608
481,1455648221.632923126220703125,608
482,1455648221.682491302490234375,608
483,1455648221.73287224769592285156,608
484,1455648221.78218054771423339844,600
485,1455648221.83272266387939453125,600
486,1455648221.8831081390380859375,600
487,1455648221.93273258209228515625,600
488,1455648221.98313212394714355469,600
489,1455648222.03281641006469726562,592
490,1455648222.082332611083984375,592
491,1455648222.13286852836608886719,592
492,1455648222.18243360519409179688,584
493,1455648222.23279547691345214844,584
494,1455648222.28233695030212402344,584
495,1455648222.33279633522033691406,576
496,1455648222.38249444961547851562,576
497,1455648222.43284845352172851562,576
498,1455648222.48234820365905761719,568
499,1455648222.5327663421630859375,568
500,1455648222.583225250244140625,560
501,1455648222.63269090652465820312,560
502,1455648222.68306064605712890625,560
503,1455648222.73267865180969238281,552
504,1455648222.78318667411804199219,552
