id, time (s), size (bits)
0,1455648201.72753357887268066406,552
1,1455648201.77082681655883789062,552
2,1455648201.82040858268737792969,560
3,1455648201.87100100517272949219,560
4,1455648201.92034435272216796875,560
5,1455648201.97093486785888671875,568
6,1455648202.02079653739929199219,568
7,1455648202.07052946090698242188,576
8,1455648202.121334075927734375,576
9,1455648202.17114305496215820312,576
10,1455648202.22092199325561523438,584
11,1455648202.27059769630432128906,584
12,1455648202.32128572463989257812,584
13,1455648202.37093424797058105469,592
14,1455648202.42064046859741210938,592
15,1455648202.47132754325866699219,592
16,1455648202.52083516120910644531,600
17,1455648202.57059144973754882812,600
18,1455648202.62114691734313964844,600
19,1455648202.67073535919189453125,600
20,1455648202.72116899490356445312,600
21,1455648202.77078175544738769531,608
22,1455648202.82113003730773925781,608
23,1455648202.87071180343627929688,608
24,1455648202.92129468917846679688,608
25,1455648202.97059583663940429688,608
26,1455648203.02137851715087890625,608
27,1455648203.07097148895263671875,608
28,1455648203.12059307098388671875,608
29,1455648203.17108583450317382812,608
30,1455648203.2206478118896484375,608
31,1455648203.2711811065673828125,608
32,1455648203.32070779800415039062,608
33,1455648203.37129068374633789062,608
34,1455648203.42068386077880859375,608
35,1455648203.47129368782043457031,608
36,1455648203.52073502540588378906,608
37,1455648203.57119727134704589844,608
38,1455648203.62062358856201171875,608
39,1455648203.67126750946044921875,608
40,1455648203.72062778472900390625,608
41,1455648203.77118945121765136719,608
42,1455648203.82070469856262207031,600
43,1455648203.8710727691650390625,600
44,1455648203.92071795463562011719,600
45,1455648203.9710979461669921875,600
46,1455648204.020786285400390625,592
47,1455648204.07048892974853515625,592
48,1455648204.12108612060546875,592
49,1455648204.17055368423461914062,592
50,1455648204.22114419937133789062,584
51,1455648204.27066755294799804688,584
52,1455648204.32110834121704101562,576
53,1455648204.37068986892700195312,576
54,1455648204.42111802101135253906,576
55,1455648204.47062063217163085938,568
56,1455648204.52106523513793945312,568
57,1455648204.57047915458679199219,568
58,1455648204.620883941650390625,560
59,1455648204.67046833038330078125,560
60,1455648204.72091960906982421875,552
61,1455648204.771327972412109375,552
62,1455648204.82087445259094238281,544
63,1455648204.8713169097900390625,544
64,1455648204.92091107368469238281,536
65,1455648204.97055745124816894531,536
66,1455648205.02132439613342285156,528
67,1455648205.07104516029357910156,528
68,1455648205.1206989288330078125,520
69,1455648205.17141246795654296875,520
70,1455648205.22098231315612792969,512
71,1455648205.27061367034912109375,512
72,1455648205.32097482681274414062,504
73,1455648205.37054681777954101562,504
74,1455648205.42104840278625488281,496
75,1455648205.47044229507446289062,496
76,1455648205.52097749710083007812,488
77,1455648205.57051753997802734375,488
78,1455648205.62097477912902832031,480
79,1455648205.6703701019287109375,480
80,1455648205.72100853919982910156,472
81,1455648205.77035832405090332031,472
82,1455648205.82091951370239257812,464
83,1455648205.87131571769714355469,464
84,1455648205.92099809646606445312,456
85,1455648205.97033929824829101562,456
86,1455648206.02110815048217773438,448
87,1455648206.07087373733520507812,448
88,1455648206.12116074562072753906,440
89,1455648206.1707611083984375,440
90,1455648206.22127270698547363281,432
91,1455648206.27087855339050292969,432
92,1455648206.32122516632080078125,424
93,1455648206.37087917327880859375,424
94,1455648206.42132782936096191406,424
95,1455648206.4708003997802734375,416
96,1455648206.52127099037170410156,416
97,1455648206.57076764106750488281,408
98,1455648206.62130188941955566406,408
99,1455648206.67069149017333984375,408
100,1455648206.72124648094177246094,400
101,1455648206.77072763442993164062,400
102,1455648206.82131433486938476562,400
103,1455648206.87107205390930175781,392
104,1455648206.92082738876342773438,392
105,1455648206.97129607200622558594,392
106,1455648207.02087521553039550781,384
107,1455648207.07076287269592285156,384
108,1455648207.12121701240539550781,384
109,1455648207.17083382606506347656,384
110,1455648207.22129297256469726562,384
111,1455648207.27109622955322265625,376
112,1455648207.32063722610473632812,376
113,1455648207.37134981155395507812,376
114,1455648207.42077684402465820312,376
115,1455648207.47117710113525390625,376
116,1455648207.52074933052062988281,376
117,1455648207.5710887908935546875,376
118,1455648207.62067008018493652344,376
119,1455648207.67122483253479003906,376
120,1455648207.72081160545349121094,376
121,1455648207.77127289772033691406,376
122,1455648207.82086491584777832031,376
123,1455648207.87128782272338867188,376
124,1455648207.92067170143127441406,376
125,1455648207.97120761871337890625,376
126,1455648208.02064871788024902344,376
127,1455648208.07122349739074707031,376
128,1455648208.12067413330078125,376
129,1455648208.17084002494812011719,376
130,1455648208.2212505340576171875,376
131,1455648208.27080893516540527344,376
132,1455648208.32115960121154785156,384
133,1455648208.37060236930847167969,384
134,1455648208.42130684852600097656,384
135,1455648208.47065687179565429688,384
136,1455648208.52134227752685546875,392
137,1455648208.57086181640625,392
138,1455648208.62138628959655761719,392
139,1455648208.67082285881042480469,392
140,1455648208.72131943702697753906,400
141,1455648208.77083063125610351562,400
142,1455648208.82116913795471191406,408
143,1455648208.87075185775756835938,408
144,1455648208.92029523849487304688,408
145,1455648208.97095251083374023438,416
146,1455648209.02037668228149414062,416
147,1455648209.07089400291442871094,416
148,1455648209.121273040771484375,424
149,1455648209.17089128494262695312,424
150,1455648209.22035002708435058594,432
151,1455648209.27104735374450683594,432
152,1455648209.32072877883911132812,440
153,1455648209.37112689018249511719,440
154,1455648209.42075276374816894531,448
155,1455648209.47118043899536132812,448
156,1455648209.520748138427734375,456
157,1455648209.57114005088806152344,456
158,1455648209.62084555625915527344,464
159,1455648209.67138791084289550781,464
160,1455648209.72078585624694824219,472
161,1455648209.77136850357055664062,472
162,1455648209.820781707763671875,480
163,1455648209.87117767333984375,480
164,1455648209.92059016227722167969,488
165,1455648209.9711246490478515625,488
166,1455648210.02067303657531738281,496
167,1455648210.07153010368347167969,496
168,1455648210.12093520164489746094,504
169,1455648210.17047858238220214844,504
170,1455648210.22112870216369628906,512
171,1455648210.27051377296447753906,512
172,1455648210.32102990150451660156,520
173,1455648210.37038135528564453125,520
174,1455648210.42084860801696777344,528
175,1455648210.47125983238220214844,528
176,1455648210.52078843116760253906,536
177,1455648210.57115721702575683594,536
178,1455648210.62059116363525390625,544
179,1455648210.6713619232177734375,544
180,1455648210.7208232879638671875,552
181,1455648210.77028203010559082031,552
182,1455648210.82066869735717773438,560
183,1455648210.87146854400634765625,560
184,1455648210.92089605331420898438,560
185,1455648210.9713878631591796875,568
186,1455648211.02097249031066894531,568
187,1455648211.07067656517028808594,576
188,1455648211.12135028839111328125,576
189,1455648211.17083716392517089844,576
190,1455648211.22038674354553222656,584
191,1455648211.27084398269653320312,584
192,1455648211.32132291793823242188,584
193,1455648211.37076830863952636719,592
194,1455648211.42139148712158203125,592
195,1455648211.47079014778137207031,592
196,1455648211.52119731903076171875,600
197,1455648211.57091736793518066406,600
198,1455648211.62134909629821777344,600
199,1455648211.67088270187377929688,600
200,1455648211.721294403076171875,600
201,1455648211.77089953422546386719,608
202,1455648211.82034230232238769531,608
203,1455648211.87092542648315429688,608
204,1455648211.92048144340515136719,608
205,1455648211.97086262702941894531,608
206,1455648212.020679473876953125,608
207,1455648212.07029175758361816406,608
208,1455648212.12093973159790039062,608
209,1455648212.17051839828491210938,608
210,1455648212.22107982635498046875,608
211,1455648212.2704925537109375,608
212,1455648212.32104158401489257812,608
213,1455648212.37056493759155273438,608
214,1455648212.42106962203979492188,608
215,1455648212.47063040733337402344,608
216,1455648212.521099090576171875,608
217,1455648212.57072424888610839844,608
218,1455648212.621105194091796875,608
219,1455648212.6706371307373046875,608
220,1455648212.72106599807739257812,608
221,1455648212.77070975303649902344,608
222,1455648212.8211078643798828125,600
223,1455648212.87056612968444824219,600
224,1455648212.92117214202880859375,600
225,1455648212.97048091888427734375,600
226,1455648213.02122545242309570312,592
227,1455648213.07091617584228515625,592
228,1455648213.12147855758666992188,592
229,1455648213.1710968017578125,592
230,1455648213.22067356109619140625,584
231,1455648213.27121472358703613281,584
232,1455648213.32062864303588867188,584
233,1455648213.37119245529174804688,576
234,1455648213.42063832283020019531,576
235,1455648213.47116303443908691406,568
236,1455648213.52052354812622070312,568
237,1455648213.57103848457336425781,568
238,1455648213.62040257453918457031,560
239,1455648213.67090320587158203125,560
240,1455648213.72032570838928222656,552
241,1455648213.77086019515991210938,552
242,1455648213.82031226158142089844,544
243,1455648213.87075209617614746094,544
244,1455648213.92132735252380371094,536
245,1455648213.97078156471252441406,536
246,1455648214.02150464057922363281,528
247,1455648214.07114076614379882812,528
248,1455648214.12074732780456542969,520
249,1455648214.17138004302978515625,520
250,1455648214.22074198722839355469,512
251,1455648214.27129578590393066406,512
252,1455648214.32069849967956542969,504
253,1455648214.37121510505676269531,504
254,1455648214.42060995101928710938,496
255,1455648214.4712352752685546875,496
256,1455648214.52070307731628417969,488
257,1455648214.57118892669677734375,488
258,1455648214.6206760406494140625,480
259,1455648214.67110395431518554688,480
260,1455648214.72059488296508789062,472
261,1455648214.77105379104614257812,472
262,1455648214.82057857513427734375,464
263,1455648214.8709926605224609375,464
264,1455648214.92055153846740722656,456
265,1455648214.970958709716796875,456
266,1455648215.02160120010375976562,448
267,1455648215.07120466232299804688,448
268,1455648215.12068462371826171875,440
269,1455648215.1703052520751953125,440
270,1455648215.22078227996826171875,432
271,1455648215.27031278610229492188,432
272,1455648215.32080674171447753906,424
273,1455648215.37152028083801269531,424
274,1455648215.4209842681884765625,424
275,1455648215.47143626213073730469,416
276,1455648215.52090549468994140625,416
277,1455648215.57121801376342773438,408
278,1455648215.62081050872802734375,408
279,1455648215.67128539085388183594,408
280,1455648215.72080874443054199219,400
281,1455648215.77122974395751953125,400
282,1455648215.82083439826965332031,400
283,1455648215.87126493453979492188,392
284,1455648215.92082071304321289062,392
285,1455648215.97125649452209472656,392
286,1455648216.02079916000366210938,384
287,1455648216.07068753242492675781,384
288,1455648216.12113499641418457031,384
289,1455648216.17083191871643066406,384
290,1455648216.22124552726745605469,384
291,1455648216.27081251144409179688,376
292,1455648216.32116556167602539062,376
293,1455648216.3707275390625,376
294,1455648216.4211864471435546875,376
295,1455648216.47052073478698730469,376
296,1455648216.52110528945922851562,376
297,1455648216.57047796249389648438,376
298,1455648216.62109088897705078125,376
299,1455648216.67047142982482910156,376
300,1455648216.721012115478515625,376
301,1455648216.7703571319580078125,376
302,1455648216.82086706161499023438,376
303,1455648216.871303558349609375,376
304,1455648216.92070293426513671875,376
305,1455648216.97125744819641113281,376
306,1455648217.02073407173156738281,376
307,1455648217.07048177719116210938,376
308,1455648217.12085652351379394531,376
309,1455648217.17052793502807617188,376
310,1455648217.22105479240417480469,376
311,1455648217.27066111564636230469,376
312,1455648217.32106328010559082031,384
313,1455648217.370494842529296875,384
314,1455648217.42107391357421875,384
315,1455648217.470371246337890625,384
316,1455648217.52103185653686523438,392
317,1455648217.57033801078796386719,392
318,1455648217.62092518806457519531,392
319,1455648217.6703395843505859375,392
320,1455648217.72086262702941894531,400
321,1455648217.77065515518188476562,400
322,1455648217.82099175453186035156,408
323,1455648217.87077236175537109375,408
324,1455648217.92128896713256835938,408
325,1455648217.97102761268615722656,416
326,1455648218.02034306526184082031,416
327,1455648218.07088303565979003906,416
328,1455648218.12129640579223632812,424
329,1455648218.17085099220275878906,424
330,1455648218.2212848663330078125,432
331,1455648218.27072572708129882812,432
332,1455648218.32139277458190917969,440
333,1455648218.37077164649963378906,440
334,1455648218.42041897773742675781,448
335,1455648218.4708271026611328125,448
336,1455648218.5214405059814453125,456
337,1455648218.57086205482482910156,456
338,1455648218.62134718894958496094,464
339,1455648218.67077875137329101562,464
340,1455648218.72116184234619140625,472
341,1455648218.770854949951171875,472
342,1455648218.82119631767272949219,480
343,1455648218.87077093124389648438,480
344,1455648218.92134046554565429688,488
345,1455648218.97091245651245117188,488
346,1455648219.0214557647705078125,496
347,1455648219.07120823860168457031,496
348,1455648219.1207027435302734375,504
349,1455648219.17139959335327148438,504
350,1455648219.22117519378662109375,512
351,1455648219.27092790603637695312,512
352,1455648219.3204803466796875,520
353,1455648219.3708896636962890625,520
354,1455648219.42043185234069824219,528
355,1455648219.47080087661743164062,528
356,1455648219.52129912376403808594,536
357,1455648219.57081103324890136719,536
358,1455648219.62119936943054199219,544
359,1455648219.67082619667053222656,544
360,1455648219.72123742103576660156,552
361,1455648219.77083683013916015625,552
362,1455648219.82114696502685546875,560
363,1455648219.87069940567016601562,560
364,1455648219.9211521148681640625,560
365,1455648219.97059369087219238281,568
366,1455648220.02118325233459472656,568
367,1455648220.07091617584228515625,576
368,1455648220.12065458297729492188,576
369,1455648220.17122530937194824219,576
370,1455648220.22077846527099609375,584
371,1455648220.27117681503295898438,584
372,1455648220.32076573371887207031,584
373,1455648220.37117934226989746094,592
374,1455648220.42074990272521972656,592
375,1455648220.47122812271118164062,592
376,1455648220.52066373825073242188,600
377,1455648220.57114672660827636719,600
378,1455648220.62057566642761230469,600
379,1455648220.67121720314025878906,600
380,1455648220.72053861618041992188,600
381,1455648220.77120423316955566406,608
382,1455648220.82068991661071777344,608
383,1455648220.87148952484130859375,608
384,1455648220.9210224151611328125,608
385,1455648220.97030353546142578125,608
386,1455648221.02111220359802246094,608
387,1455648221.07081437110900878906,608
388,1455648221.12035822868347167969,608
389,1455648221.17073202133178710938,608
390,1455648221.22136712074279785156,608
391,1455648221.2708606719970703125,608
392,1455648221.32147979736328125,608
393,1455648221.37088322639465332031,608
394,1455648221.4202899932861328125,608
395,1455648221.47080016136169433594,608
396,1455648221.52121233940124511719,608
397,1455648221.57079291343688964844,608
398,1455648221.62115502357482910156,608
399,1455648221.67067575454711914062,608
400,1455648221.72114872932434082031,608
401,1455648221.77074265480041503906,608
402,1455648221.82116413116455078125,600
403,1455648221.87059307098388671875,600
404,1455648221.92051911354064941406,600
405,1455648221.97090864181518554688,600
406,1455648222.02049231529235839844,592
407,1455648222.07111525535583496094,592
408,1455648222.12081217765808105469,592
409,1455648222.17028546333312988281,592
410,1455648222.22082185745239257812,584
411,1455648222.27131199836730957031,584
412,1455648222.32090663909912109375,576
413,1455648222.37056064605712890625,576
414,1455648222.42110967636108398438,576
415,1455648222.47061586380004882812,568
416,1455648222.52107524871826171875,568
417,1455648222.57067656517028808594,568
418,1455648222.62107920646667480469,560
419,1455648222.67055153846740722656,560
420,1455648222.72098064422607421875,552
421,1455648222.77030253410339355469,552
422,1455648222.82083272933959960938,544
423,1455648222.87122702598571777344,544
424,1455648222.92077660560607910156,536
425,1455648222.97115683555603027344,536
426,1455648223.02099490165710449219,528
427,1455648223.07069706916809082031,528
428,1455648223.1212310791015625,520
429,1455648223.17074489593505859375,520
430,1455648223.22121000289916992188,512
431,1455648223.27085542678833007812,512
432,1455648223.321186065673828125,504
433,1455648223.37077474594116210938,504
434,1455648223.42131018638610839844,496
435,1455648223.47085118293762207031,496
436,1455648223.52128744125366210938,488
437,1455648223.57086801528930664062,488
438,1455648223.62128138542175292969,480
439,1455648223.67068624496459960938,480
440,1455648223.72125339508056640625,472
441,1455648223.77070641517639160156,472
442,1455648223.82118344306945800781,464
443,1455648223.87061977386474609375,464
444,1455648223.92136168479919433594,456
445,1455648223.97083449363708496094,456
446,1455648224.02148103713989257812,448
447,1455648224.07111763954162597656,448
448,1455648224.12058711051940917969,440
449,1455648224.17131543159484863281,440
450,1455648224.22081160545349121094,432
451,1455648224.27035236358642578125,432
452,1455648224.32075667381286621094,424
453,1455648224.37127232551574707031,424
454,1455648224.42068982124328613281,424
455,1455648224.47119355201721191406,416
456,1455648224.52063512802124023438,416
457,1455648224.57095408439636230469,408
458,1455648224.62056136131286621094,408
459,1455648224.67105197906494140625,408
460,1455648224.72060894966125488281,400
461,1455648224.77105641365051269531,400
462,1455648224.82058787345886230469,400
463,1455648224.87100005149841308594,392
464,1455648224.92057967185974121094,392
465,1455648224.97100973129272460938,392
466,1455648225.02044224739074707031,384
467,1455648225.07117295265197753906,384
468,1455648225.12063431739807128906,384
469,1455648225.17028903961181640625,384
470,1455648225.22077918052673339844,384
471,1455648225.27138614654541015625,376
472,1455648225.32086944580078125,376
473,1455648225.37136983871459960938,376
474,1455648225.42079615592956542969,376
475,1455648225.47117686271667480469,376
476,1455648225.52076768875122070312,376
477,1455648225.57107281684875488281,376
478,1455648225.62069821357727050781,376
479,1455648225.67114233970642089844,376
480,1455648225.72063350677490234375,376
481,1455648225.77109646797180175781,376
482,1455648225.82058763504028320312,376
483,1455648225.8710079193115234375,376
484,1455648225.92042112350463867188,376
485,1455648225.97097921371459960938,376
486,1455648226.020290374755859375,376
487,1455648226.07091450691223144531,376
488,1455648226.12130570411682128906,376
489,1455648226.17087101936340332031,376
490,1455648226.22128462791442871094,376
491,1455648226.27077960968017578125,376
492,1455648226.32115435600280761719,384
493,1455648226.37057089805603027344,384
494,1455648226.42125272750854492188,384
495,1455648226.47059369087219238281,384
496,1455648226.5211658477783203125,392
497,1455648226.570545196533203125,392
498,1455648226.62108159065246582031,392
499,1455648226.6704864501953125,392
500,1455648226.72100949287414550781,400
501,1455648226.77034068107604980469,400
502,1455648226.82073760032653808594,400
503,1455648226.87036967277526855469,408
504,1455648226.92077231407165527344,408
