id, time (s), size (bits)
0,1455648197.85546159744262695312,96
1,1455648197.90532684326171875,96
2,1455648197.95596027374267578125,96
3,1455648198.005741119384765625,96
4,1455648198.05649900436401367188,96
5,1455648198.10604143142700195312,96
6,1455648198.15543389320373535156,96
7,1455648198.20615291595458984375,96
8,1455648198.255931854248046875,96
9,1455648198.30581116676330566406,96
10,1455648198.35541319847106933594,96
11,1455648198.40587162971496582031,96
12,1455648198.45645189285278320312,96
13,1455648198.50593686103820800781,96
14,1455648198.55644369125366210938,96
15,1455648198.60586690902709960938,96
16,1455648198.65706562995910644531,96
17,1455648198.70668888092041015625,96
18,1455648198.75534343719482421875,96
19,1455648198.80581593513488769531,96
20,1455648198.85627913475036621094,96
21,1455648198.90593385696411132812,96
22,1455648198.95623731613159179688,96
23,1455648199.00592947006225585938,96
24,1455648199.05545878410339355469,96
25,1455648199.10592961311340332031,96
26,1455648199.1557712554931640625,96
27,1455648199.20630645751953125,96
28,1455648199.25587630271911621094,96
29,1455648199.30626177787780761719,96
30,1455648199.35582756996154785156,96
31,1455648199.40573525428771972656,96
32,1455648199.45624136924743652344,96
33,1455648199.50592064857482910156,96
34,1455648199.55657076835632324219,96
35,1455648199.60561466217041015625,96
36,1455648199.65591669082641601562,96
37,1455648199.70532083511352539062,96
38,1455648199.7557315826416015625,96
39,1455648199.80630421638488769531,96
40,1455648199.85549426078796386719,96
41,1455648199.90594005584716796875,96
42,1455648199.95617413520812988281,96
43,1455648200.00556540489196777344,96
44,1455648200.05606722831726074219,96
45,1455648200.105335235595703125,96
46,1455648200.15572214126586914062,96
47,1455648200.20605683326721191406,96
48,1455648200.25563406944274902344,96
49,1455648200.30605149269104003906,96
50,1455648200.35538482666015625,96
51,1455648200.40580797195434570312,96
52,1455648200.45617580413818359375,96
53,1455648200.50580739974975585938,96
54,1455648200.55530762672424316406,96
55,1455648200.60610938072204589844,96
56,1455648200.6557712554931640625,96
57,1455648200.70652127265930175781,96
58,1455648200.75614190101623535156,96
59,1455648200.80611586570739746094,96
60,1455648200.85583996772766113281,96
61,1455648200.90548467636108398438,96
62,1455648200.95630311965942382812,96
63,1455648201.00619626045227050781,96
64,1455648201.05620813369750976562,96
65,1455648201.10627007484436035156,96
66,1455648201.15599918365478515625,96
67,1455648201.20555758476257324219,96
68,1455648201.2563266754150390625,96
69,1455648201.30592870712280273438,96
70,1455648201.35543370246887207031,96
71,1455648201.40618348121643066406,96
72,1455648201.45580339431762695312,96
73,1455648201.50538706779479980469,96
74,1455648201.55602979660034179688,96
75,1455648201.60572385787963867188,96
76,1455648201.65526318550109863281,96
77,1455648201.70592260360717773438,96
78,1455648201.75562763214111328125,96
79,1455648201.80630135536193847656,96
80,1455648201.85610890388488769531,96
81,1455648201.90565156936645507812,96
82,1455648201.95549082756042480469,96
83,1455648202.00620865821838378906,96
84,1455648202.05633378028869628906,96
85,1455648202.10599541664123535156,96
86,1455648202.15564179420471191406,96
87,1455648202.20618081092834472656,96
88,1455648202.25573801994323730469,96
89,1455648202.30558156967163085938,96
90,1455648202.35616350173950195312,96
91,1455648202.40584206581115722656,96
92,1455648202.45535516738891601562,96
93,1455648202.50609469413757324219,96
94,1455648202.55567407608032226562,96
95,1455648202.60638070106506347656,96
96,1455648202.65609097480773925781,96
97,1455648202.70562720298767089844,96
98,1455648202.75631785392761230469,96
99,1455648202.8059139251708984375,96
100,1455648202.85562586784362792969,96
101,1455648202.90617465972900390625,96
102,1455648202.95602679252624511719,96
103,1455648203.00595688819885253906,96
104,1455648203.05577182769775390625,96
105,1455648203.10540032386779785156,96
106,1455648203.15595483779907226562,96
107,1455648203.20577383041381835938,96
108,1455648203.25537276268005371094,96
109,1455648203.3061428070068359375,96
110,1455648203.35558724403381347656,96
111,1455648203.40645885467529296875,96
112,1455648203.45598077774047851562,96
113,1455648203.5057621002197265625,96
114,1455648203.55634474754333496094,96
115,1455648203.60584545135498046875,96
116,1455648203.65564370155334472656,96
117,1455648203.706195831298828125,96
118,1455648203.75592923164367675781,96
119,1455648203.80559563636779785156,96
120,1455648203.85638475418090820312,96
121,1455648203.90606093406677246094,96
122,1455648203.95579886436462402344,96
123,1455648204.005542755126953125,96
124,1455648204.05623149871826171875,96
125,1455648204.10610651969909667969,96
126,1455648204.15564751625061035156,96
127,1455648204.20540308952331542969,96
128,1455648204.25594115257263183594,96
129,1455648204.30626010894775390625,96
130,1455648204.35579323768615722656,96
131,1455648204.40545749664306640625,96
132,1455648204.45598459243774414062,96
133,1455648204.50553965568542480469,96
134,1455648204.55634832382202148438,96
135,1455648204.60598635673522949219,96
136,1455648204.65574312210083007812,96
137,1455648204.7063159942626953125,96
138,1455648204.75598430633544921875,96
139,1455648204.80564713478088378906,96
140,1455648204.85642385482788085938,96
141,1455648204.90609908103942871094,96
142,1455648204.95571660995483398438,96
143,1455648205.00592923164367675781,96
144,1455648205.0556926727294921875,96
145,1455648205.10561275482177734375,96
146,1455648205.15620541572570800781,96
147,1455648205.20602202415466308594,96
148,1455648205.25559234619140625,96
149,1455648205.3064022064208984375,96
150,1455648205.3560009002685546875,96
151,1455648205.40573334693908691406,96
152,1455648205.45538330078125,96
153,1455648205.50600314140319824219,96
154,1455648205.55573940277099609375,96
155,1455648205.60626149177551269531,96
156,1455648205.6560649871826171875,96
157,1455648205.70567464828491210938,96
158,1455648205.75630402565002441406,96
159,1455648205.80589270591735839844,96
160,1455648205.85547780990600585938,96
161,1455648205.90631079673767089844,96
162,1455648205.95594167709350585938,96
163,1455648206.00597167015075683594,96
164,1455648206.05565476417541503906,96
165,1455648206.10559368133544921875,96
166,1455648206.15614104270935058594,96
167,1455648206.20589733123779296875,96
168,1455648206.25551390647888183594,96
169,1455648206.30609035491943359375,96
170,1455648206.35582733154296875,96
171,1455648206.40525937080383300781,96
172,1455648206.4558963775634765625,96
173,1455648206.5054645538330078125,96
174,1455648206.55611252784729003906,96
175,1455648206.60570287704467773438,96
176,1455648206.65635728836059570312,96
177,1455648206.70600008964538574219,96
178,1455648206.75554728507995605469,96
179,1455648206.80547428131103515625,96
180,1455648206.85597944259643554688,96
181,1455648206.90566301345825195312,96
182,1455648206.95612978935241699219,96
183,1455648207.00621509552001953125,96
184,1455648207.05589079856872558594,96
185,1455648207.10561537742614746094,96
186,1455648207.15620350837707519531,96
187,1455648207.20583081245422363281,96
188,1455648207.25571560859680175781,96
189,1455648207.30528759956359863281,96
190,1455648207.35604643821716308594,96
191,1455648207.40560817718505859375,96
192,1455648207.45621538162231445312,96
193,1455648207.50578284263610839844,96
194,1455648207.55545186996459960938,96
195,1455648207.60598969459533691406,96
196,1455648207.65547704696655273438,96
197,1455648207.70623230934143066406,96
198,1455648207.7557735443115234375,96
199,1455648207.80560469627380371094,96
200,1455648207.85615777969360351562,96
201,1455648207.90595793724060058594,96
202,1455648207.9554576873779296875,96
203,1455648208.00609540939331054688,96
204,1455648208.05564117431640625,96
205,1455648208.1061611175537109375,96
206,1455648208.15614223480224609375,96
207,1455648208.20585393905639648438,96
208,1455648208.25558376312255859375,96
209,1455648208.30631375312805175781,96
210,1455648208.35595870018005371094,96
211,1455648208.4054775238037109375,96
212,1455648208.45617794990539550781,96
213,1455648208.50584053993225097656,96
214,1455648208.55527544021606445312,96
215,1455648208.60599756240844726562,96
216,1455648208.65564942359924316406,96
217,1455648208.70529413223266601562,96
218,1455648208.75593852996826171875,96
219,1455648208.8057651519775390625,96
220,1455648208.85632562637329101562,96
221,1455648208.90607285499572753906,96
222,1455648208.95573854446411132812,96
223,1455648209.00532054901123046875,96
224,1455648209.05593061447143554688,96
225,1455648209.1055583953857421875,96
226,1455648209.15621256828308105469,96
227,1455648209.20585489273071289062,96
228,1455648209.25550317764282226562,96
229,1455648209.30615973472595214844,96
230,1455648209.35580372810363769531,96
231,1455648209.40531706809997558594,96
232,1455648209.45582342147827148438,96
233,1455648209.50564980506896972656,96
234,1455648209.55621004104614257812,96
235,1455648209.60586619377136230469,96
236,1455648209.65530157089233398438,96
237,1455648209.70607829093933105469,96
238,1455648209.75573849678039550781,96
239,1455648209.80553460121154785156,96
240,1455648209.85612082481384277344,96
241,1455648209.90576696395874023438,96
242,1455648209.9553375244140625,96
243,1455648210.00619292259216308594,96
244,1455648210.05622196197509765625,96
245,1455648210.10592436790466308594,96
246,1455648210.15562415122985839844,96
247,1455648210.20615673065185546875,96
248,1455648210.25585317611694335938,96
249,1455648210.30554366111755371094,96
250,1455648210.35606980323791503906,96
251,1455648210.40577793121337890625,96
252,1455648210.45530581474304199219,96
253,1455648210.50610256195068359375,96
254,1455648210.55575203895568847656,96
255,1455648210.60651731491088867188,96
256,1455648210.65617108345031738281,96
257,1455648210.70591020584106445312,96
258,1455648210.75562381744384765625,96
259,1455648210.80620718002319335938,96
260,1455648210.85601139068603515625,96
261,1455648210.90571641921997070312,96
262,1455648210.95530200004577636719,96
263,1455648211.00608515739440917969,96
264,1455648211.05610251426696777344,96
265,1455648211.10579681396484375,96
266,1455648211.156463623046875,96
267,1455648211.2061309814453125,96
268,1455648211.25584650039672851562,96
269,1455648211.30572533607482910156,96
270,1455648211.35626888275146484375,96
271,1455648211.40600156784057617188,96
272,1455648211.45553827285766601562,96
273,1455648211.50634980201721191406,96
274,1455648211.55593585968017578125,96
275,1455648211.60568666458129882812,96
276,1455648211.65627717971801757812,96
277,1455648211.70590090751647949219,96
278,1455648211.75568866729736328125,96
279,1455648211.80533170700073242188,96
280,1455648211.85605716705322265625,96
281,1455648211.90562653541564941406,96
282,1455648211.95654821395874023438,96
283,1455648212.00626111030578613281,96
284,1455648212.05623674392700195312,96
285,1455648212.10595560073852539062,96
286,1455648212.15553832054138183594,96
287,1455648212.20629906654357910156,96
288,1455648212.25588202476501464844,96
289,1455648212.30577039718627929688,96
290,1455648212.3563594818115234375,96
291,1455648212.406219482421875,96
292,1455648212.45586538314819335938,96
293,1455648212.50554943084716796875,96
294,1455648212.55610156059265136719,96
295,1455648212.6055622100830078125,96
296,1455648212.65523624420166015625,96
297,1455648212.70572948455810546875,96
298,1455648212.75553965568542480469,96
299,1455648212.806148529052734375,96
300,1455648212.85588097572326660156,96
301,1455648212.90532422065734863281,96
302,1455648212.95596528053283691406,96
303,1455648213.00580549240112304688,96
304,1455648213.05557417869567871094,96
305,1455648213.10535764694213867188,96
306,1455648213.15591764450073242188,96
307,1455648213.20574474334716796875,96
308,1455648213.25627589225769042969,96
309,1455648213.30605244636535644531,96
310,1455648213.35554194450378417969,96
311,1455648213.40645813941955566406,96
312,1455648213.45599603652954101562,96
313,1455648213.50558376312255859375,96
314,1455648213.55528163909912109375,96
315,1455648213.60579562187194824219,96
316,1455648213.65563225746154785156,96
317,1455648213.70606660842895507812,96
318,1455648213.7559070587158203125,96
319,1455648213.80559539794921875,96
320,1455648213.85639262199401855469,96
321,1455648213.90601015090942382812,96
322,1455648213.95551061630249023438,96
323,1455648214.00638270378112792969,96
324,1455648214.05622935295104980469,96
325,1455648214.10621237754821777344,96
326,1455648214.15577936172485351562,96
327,1455648214.20644521713256835938,96
328,1455648214.25604152679443359375,96
329,1455648214.3057575225830078125,96
330,1455648214.35628509521484375,96
331,1455648214.40585446357727050781,96
332,1455648214.455776214599609375,96
333,1455648214.50631070137023925781,96
334,1455648214.55601024627685546875,96
335,1455648214.6054401397705078125,96
336,1455648214.6562404632568359375,96
337,1455648214.70586633682250976562,96
338,1455648214.75575852394104003906,96
339,1455648214.80539679527282714844,96
340,1455648214.8559513092041015625,96
341,1455648214.905853271484375,96
342,1455648214.95547127723693847656,96
343,1455648215.00632333755493164062,96
344,1455648215.05610752105712890625,96
345,1455648215.10605788230895996094,96
346,1455648215.1558837890625,96
347,1455648215.20655655860900878906,96
348,1455648215.25606536865234375,96
349,1455648215.30564522743225097656,96
350,1455648215.35544347763061523438,96
351,1455648215.40603399276733398438,96
352,1455648215.45577526092529296875,96
353,1455648215.50630593299865722656,96
354,1455648215.55600476264953613281,96
355,1455648215.60558652877807617188,96
356,1455648215.65632081031799316406,96
357,1455648215.70597577095031738281,96
358,1455648215.75553131103515625,96
359,1455648215.80539393424987792969,96
360,1455648215.85594654083251953125,96
361,1455648215.90575313568115234375,96
362,1455648215.95620608329772949219,96
363,1455648216.00618815422058105469,96
364,1455648216.05614399909973144531,96
365,1455648216.10596966743469238281,96
366,1455648216.15550732612609863281,96
367,1455648216.20603084564208984375,96
368,1455648216.25589776039123535156,96
369,1455648216.30544972419738769531,96
370,1455648216.356075286865234375,96
371,1455648216.40574312210083007812,96
372,1455648216.45633482933044433594,96
373,1455648216.5059528350830078125,96
374,1455648216.55564093589782714844,96
375,1455648216.60624074935913085938,96
376,1455648216.65578317642211914062,96
377,1455648216.70556974411010742188,96
378,1455648216.75619649887084960938,96
379,1455648216.80604410171508789062,96
380,1455648216.855495452880859375,96
381,1455648216.90619993209838867188,96
382,1455648216.95581221580505371094,96
383,1455648217.00654697418212890625,96
384,1455648217.05614900588989257812,96
385,1455648217.10559511184692382812,96
386,1455648217.15624570846557617188,96
387,1455648217.20586037635803222656,96
388,1455648217.25559139251708984375,96
389,1455648217.30630993843078613281,96
390,1455648217.3560810089111328125,96
391,1455648217.40579557418823242188,96
392,1455648217.45550274848937988281,96
393,1455648217.50615334510803222656,96
394,1455648217.555812835693359375,96
395,1455648217.60558724403381347656,96
396,1455648217.65613865852355957031,96
397,1455648217.70580172538757324219,96
398,1455648217.75540137290954589844,96
399,1455648217.80617856979370117188,96
400,1455648217.85567188262939453125,96
401,1455648217.90645933151245117188,96
402,1455648217.95617580413818359375,96
403,1455648218.00580739974975585938,96
404,1455648218.05551171302795410156,96
405,1455648218.10605335235595703125,96
406,1455648218.15575456619262695312,96
407,1455648218.20623350143432617188,96
408,1455648218.25600266456604003906,96
409,1455648218.30557990074157714844,96
410,1455648218.35621309280395507812,96
411,1455648218.40589189529418945312,96
412,1455648218.45531225204467773438,96
413,1455648218.50605297088623046875,96
414,1455648218.55562829971313476562,96
415,1455648218.60538840293884277344,96
416,1455648218.65604233741760253906,96
417,1455648218.70589351654052734375,96
418,1455648218.75540876388549804688,96
419,1455648218.80611348152160644531,96
420,1455648218.85560393333435058594,96
421,1455648218.90615749359130859375,96
422,1455648218.9559230804443359375,96
423,1455648219.00577831268310546875,96
424,1455648219.05559611320495605469,96
425,1455648219.10620403289794921875,96
426,1455648219.15599083900451660156,96
427,1455648219.20561671257019042969,96
428,1455648219.25630593299865722656,96
429,1455648219.30587530136108398438,96
430,1455648219.35531735420227050781,96
431,1455648219.4061679840087890625,96
432,1455648219.45577931404113769531,96
433,1455648219.50550079345703125,96
434,1455648219.55602145195007324219,96
435,1455648219.60571885108947753906,96
436,1455648219.65526032447814941406,96
437,1455648219.70604181289672851562,96
438,1455648219.75575733184814453125,96
439,1455648219.80530786514282226562,96
440,1455648219.85601329803466796875,96
441,1455648219.90565967559814453125,96
442,1455648219.95532512664794921875,96
443,1455648220.00607824325561523438,96
444,1455648220.056209564208984375,96
445,1455648220.10592103004455566406,96
446,1455648220.1554775238037109375,96
447,1455648220.20622658729553222656,96
448,1455648220.25584244728088378906,96
449,1455648220.30569982528686523438,96
450,1455648220.35628032684326171875,96
451,1455648220.40617060661315917969,96
452,1455648220.45576953887939453125,96
453,1455648220.5064601898193359375,96
454,1455648220.55600380897521972656,96
455,1455648220.60578155517578125,96
456,1455648220.65535473823547363281,96
457,1455648220.70595288276672363281,96
458,1455648220.75576519966125488281,96
459,1455648220.80539846420288085938,96
460,1455648220.85612511634826660156,96
461,1455648220.90575671195983886719,96
462,1455648220.95641827583312988281,96
463,1455648221.0061206817626953125,96
464,1455648221.05601739883422851562,96
465,1455648221.1056346893310546875,96
466,1455648221.15623950958251953125,96
467,1455648221.206096649169921875,96
468,1455648221.25578188896179199219,96
469,1455648221.30552005767822265625,96
470,1455648221.35596060752868652344,96
471,1455648221.40578556060791015625,96
472,1455648221.45618724822998046875,96
473,1455648221.50591802597045898438,96
474,1455648221.55611205101013183594,96
475,1455648221.60565352439880371094,96
476,1455648221.65527653694152832031,96
477,1455648221.70575690269470214844,96
478,1455648221.75542593002319335938,96
479,1455648221.80603480339050292969,96
480,1455648221.85564827919006347656,96
481,1455648221.90524220466613769531,96
482,1455648221.95582032203674316406,96
483,1455648222.00570082664489746094,96
484,1455648222.05640888214111328125,96
485,1455648222.10624456405639648438,96
486,1455648222.15572595596313476562,96
487,1455648222.2054729461669921875,96
488,1455648222.25595593452453613281,96
489,1455648222.30562567710876464844,96
490,1455648222.35611557960510253906,96
491,1455648222.40581846237182617188,96
492,1455648222.45626878738403320312,96
493,1455648222.505863189697265625,96
494,1455648222.5555667877197265625,96
495,1455648222.60607504844665527344,96
496,1455648222.65576434135437011719,96
497,1455648222.70618700981140136719,96
498,1455648222.75585198402404785156,96
499,1455648222.80549097061157226562,96
500,1455648222.8561458587646484375,96
501,1455648222.9057750701904296875,96
502,1455648222.95614933967590332031,96
503,1455648223.006305694580078125,96
504,1455648223.05619406700134277344,96
505,1455648223.10599040985107421875,96
506,1455648223.15533971786499023438,96
507,1455648223.205989837646484375,96
508,1455648223.25562524795532226562,96
509,1455648223.30643010139465332031,96
510,1455648223.35596251487731933594,96
511,1455648223.40547490119934082031,96
512,1455648223.45616006851196289062,96
513,1455648223.50565576553344726562,96
514,1455648223.55630087852478027344,96
515,1455648223.60590219497680664062,96
516,1455648223.65650415420532226562,96
517,1455648223.70606112480163574219,96
