id, time (s), size (bits)
0,1455648200.05146574974060058594,96
1,1455648200.09493398666381835938,96
2,1455648200.14476370811462402344,96
3,1455648200.19907498359680175781,96
4,1455648200.24477410316467285156,96
5,1455648200.29450750350952148438,96
6,1455648200.34511065483093261719,96
7,1455648200.39471340179443359375,96
8,1455648200.44453454017639160156,96
9,1455648200.49394297599792480469,96
10,1455648200.54462575912475585938,96
11,1455648200.59401369094848632812,96
12,1455648200.64460849761962890625,96
13,1455648200.69400453567504882812,96
14,1455648200.7446384429931640625,96
15,1455648200.79422974586486816406,96
16,1455648200.84462237358093261719,96
17,1455648200.89445281028747558594,96
18,1455648200.94399023056030273438,96
19,1455648200.99473905563354492188,96
20,1455648201.04433417320251464844,96
21,1455648201.09510326385498046875,96
22,1455648201.14480638504028320312,96
23,1455648201.19441270828247070312,96
24,1455648201.24494719505310058594,96
25,1455648201.29453420639038085938,96
26,1455648201.34427237510681152344,96
27,1455648201.39472317695617675781,96
28,1455648201.44441103935241699219,96
29,1455648201.49492120742797851562,96
30,1455648201.54463315010070800781,96
31,1455648201.59414219856262207031,96
32,1455648201.64474821090698242188,96
33,1455648201.69443345069885253906,96
34,1455648201.74485802650451660156,96
35,1455648201.79459428787231445312,96
36,1455648201.84500241279602050781,96
37,1455648201.89471030235290527344,96
38,1455648201.944316864013671875,96
39,1455648201.99492216110229492188,96
40,1455648202.04445481300354003906,96
41,1455648202.09426641464233398438,96
42,1455648202.14487934112548828125,96
43,1455648202.19448995590209960938,96
44,1455648202.24433183670043945312,96
45,1455648202.29479193687438964844,96
46,1455648202.34454631805419921875,96
47,1455648202.39406418800354003906,96
48,1455648202.44475054740905761719,96
49,1455648202.49421286582946777344,96
50,1455648202.54485845565795898438,96
51,1455648202.59443449974060058594,96
52,1455648202.64491868019104003906,96
53,1455648202.69457077980041503906,96
54,1455648202.743930816650390625,96
55,1455648202.79457569122314453125,96
56,1455648202.84396672248840332031,96
57,1455648202.89443492889404296875,96
58,1455648202.94498205184936523438,96
59,1455648202.99461078643798828125,96
60,1455648203.04420614242553710938,96
61,1455648203.09489417076110839844,96
62,1455648203.14454913139343261719,96
63,1455648203.19403076171875,96
64,1455648203.24465012550354003906,96
65,1455648203.29438734054565429688,96
66,1455648203.34501147270202636719,96
67,1455648203.39439034461975097656,96
68,1455648203.4450321197509765625,96
69,1455648203.49455213546752929688,96
70,1455648203.54501414299011230469,96
71,1455648203.59462809562683105469,96
72,1455648203.64499330520629882812,96
73,1455648203.6946048736572265625,96
74,1455648203.7439212799072265625,96
75,1455648203.79451274871826171875,96
76,1455648203.84501719474792480469,96
77,1455648203.89458775520324707031,96
78,1455648203.94408297538757324219,96
79,1455648203.99457526206970214844,96
80,1455648204.04415774345397949219,96
81,1455648204.09484624862670898438,96
82,1455648204.14443039894104003906,96
83,1455648204.19497847557067871094,96
84,1455648204.24476861953735351562,96
85,1455648204.29434823989868164062,96
86,1455648204.34497857093811035156,96
87,1455648204.39450192451477050781,96
88,1455648204.44496417045593261719,96
89,1455648204.49456548690795898438,96
90,1455648204.54406595230102539062,96
91,1455648204.59463024139404296875,96
92,1455648204.64406371116638183594,96
93,1455648204.69473361968994140625,96
94,1455648204.744205474853515625,96
95,1455648204.79475045204162597656,96
96,1455648204.84424543380737304688,96
97,1455648204.89459133148193359375,96
98,1455648204.94427132606506347656,96
99,1455648204.9947299957275390625,96
100,1455648205.04437685012817382812,96
101,1455648205.09398102760314941406,96
102,1455648205.14462924003601074219,96
103,1455648205.19406104087829589844,96
104,1455648205.24477672576904296875,96
105,1455648205.29437398910522460938,96
106,1455648205.3448581695556640625,96
107,1455648205.39441180229187011719,96
108,1455648205.44490027427673339844,96
109,1455648205.49447846412658691406,96
110,1455648205.54482364654541015625,96
111,1455648205.59450507164001464844,96
112,1455648205.64399456977844238281,96
113,1455648205.69454789161682128906,96
114,1455648205.74498462677001953125,96
115,1455648205.79443264007568359375,96
116,1455648205.84395241737365722656,96
117,1455648205.89434027671813964844,96
118,1455648205.94497203826904296875,96
119,1455648205.99442791938781738281,96
120,1455648206.045185089111328125,96
121,1455648206.09489965438842773438,96
122,1455648206.14452052116394042969,96
123,1455648206.19401717185974121094,96
124,1455648206.24456143379211425781,96
125,1455648206.29422497749328613281,96
126,1455648206.34468841552734375,96
127,1455648206.39436483383178710938,96
128,1455648206.44487881660461425781,96
129,1455648206.49506282806396484375,96
130,1455648206.54455924034118652344,96
131,1455648206.5940418243408203125,96
132,1455648206.644428253173828125,96
133,1455648206.69488024711608886719,96
134,1455648206.74452042579650878906,96
135,1455648206.79487490653991699219,96
136,1455648206.84446263313293457031,96
137,1455648206.89490723609924316406,96
138,1455648206.944591522216796875,96
139,1455648206.99401736259460449219,96
140,1455648207.04476976394653320312,96
141,1455648207.09488081932067871094,96
142,1455648207.14430308341979980469,96
143,1455648207.19498443603515625,96
144,1455648207.24450278282165527344,96
145,1455648207.29422116279602050781,96
146,1455648207.34467315673828125,96
147,1455648207.39417409896850585938,96
148,1455648207.44472551345825195312,96
149,1455648207.49413919448852539062,96
150,1455648207.54461979866027832031,96
151,1455648207.59400486946105957031,96
152,1455648207.64451766014099121094,96
153,1455648207.69495892524719238281,96
154,1455648207.74464082717895507812,96
155,1455648207.79399728775024414062,96
156,1455648207.84453320503234863281,96
157,1455648207.89496493339538574219,96
158,1455648207.94457125663757324219,96
159,1455648207.99496769905090332031,96
160,1455648208.04444432258605957031,96
161,1455648208.09393715858459472656,96
162,1455648208.14441394805908203125,96
163,1455648208.19410395622253417969,96
164,1455648208.24464201927185058594,96
165,1455648208.294300079345703125,96
166,1455648208.34478878974914550781,96
167,1455648208.39425802230834960938,96
168,1455648208.44488835334777832031,96
169,1455648208.49437570571899414062,96
170,1455648208.54401135444641113281,96
171,1455648208.59440565109252929688,96
172,1455648208.64396333694458007812,96
173,1455648208.69440937042236328125,96
174,1455648208.74492001533508300781,96
175,1455648208.79438996315002441406,96
176,1455648208.84497117996215820312,96
177,1455648208.89438700675964355469,96
178,1455648208.94485735893249511719,96
179,1455648208.99453592300415039062,96
180,1455648209.04498744010925292969,96
181,1455648209.09448266029357910156,96
182,1455648209.14481496810913085938,96
183,1455648209.19448447227478027344,96
184,1455648209.24494218826293945312,96
185,1455648209.29453158378601074219,96
186,1455648209.34409642219543457031,96
187,1455648209.39451122283935546875,96
188,1455648209.444110870361328125,96
189,1455648209.49455785751342773438,96
190,1455648209.54414844512939453125,96
191,1455648209.59453868865966796875,96
192,1455648209.64411902427673339844,96
193,1455648209.69465208053588867188,96
194,1455648209.74411082267761230469,96
195,1455648209.79458308219909667969,96
196,1455648209.84391808509826660156,96
197,1455648209.89459061622619628906,96
198,1455648209.94398283958435058594,96
199,1455648209.99455952644348144531,96
200,1455648210.04503297805786132812,96
201,1455648210.09493565559387207031,96
202,1455648210.14445662498474121094,96
203,1455648210.19508314132690429688,96
204,1455648210.244663238525390625,96
205,1455648210.29406476020812988281,96
206,1455648210.3448848724365234375,96
207,1455648210.39440703392028808594,96
208,1455648210.4439868927001953125,96
209,1455648210.49444270133972167969,96
210,1455648210.54493236541748046875,96
211,1455648210.5943813323974609375,96
212,1455648210.64504861831665039062,96
213,1455648210.69456410408020019531,96
214,1455648210.74494433403015136719,96
215,1455648210.79457044601440429688,96
216,1455648210.84398007392883300781,96
217,1455648210.89458894729614257812,96
218,1455648210.94397449493408203125,96
219,1455648210.99451732635498046875,96
220,1455648211.0450153350830078125,96
221,1455648211.0949382781982421875,96
222,1455648211.14447641372680664062,96
223,1455648211.19497585296630859375,96
224,1455648211.244617462158203125,96
225,1455648211.29405260086059570312,96
226,1455648211.34458136558532714844,96
227,1455648211.39397859573364257812,96
228,1455648211.44456386566162109375,96
229,1455648211.49493193626403808594,96
230,1455648211.54458713531494140625,96
231,1455648211.59405851364135742188,96
232,1455648211.64439654350280761719,96
233,1455648211.69499921798706054688,96
234,1455648211.74446344375610351562,96
235,1455648211.79392004013061523438,96
236,1455648211.844333648681640625,96
237,1455648211.89488816261291503906,96
238,1455648211.94440388679504394531,96
239,1455648211.99497556686401367188,96
240,1455648212.04456353187561035156,96
241,1455648212.09426832199096679688,96
242,1455648212.14490580558776855469,96
243,1455648212.19443583488464355469,96
244,1455648212.24414968490600585938,96
245,1455648212.29462075233459472656,96
246,1455648212.34419727325439453125,96
247,1455648212.39467549324035644531,96
248,1455648212.44449925422668457031,96
249,1455648212.49490642547607421875,96
250,1455648212.54442191123962402344,96
251,1455648212.59392666816711425781,96
252,1455648212.64457535743713378906,96
253,1455648212.69399380683898925781,96
254,1455648212.74443936347961425781,96
255,1455648212.79499125480651855469,96
256,1455648212.84445953369140625,96
257,1455648212.89510107040405273438,96
258,1455648212.94465279579162597656,96
259,1455648212.99399733543395996094,96
260,1455648213.04463887214660644531,96
261,1455648213.09431862831115722656,96
262,1455648213.14493894577026367188,96
263,1455648213.19450712203979492188,96
264,1455648213.24521708488464355469,96
265,1455648213.29469776153564453125,96
266,1455648213.34428429603576660156,96
267,1455648213.39475107192993164062,96
268,1455648213.4441356658935546875,96
269,1455648213.49470424652099609375,96
270,1455648213.54417824745178222656,96
271,1455648213.59481644630432128906,96
272,1455648213.64421796798706054688,96
273,1455648213.69493913650512695312,96
274,1455648213.74445891380310058594,96
275,1455648213.79491496086120605469,96
276,1455648213.84442138671875,96
277,1455648213.89482021331787109375,96
278,1455648213.94446063041687011719,96
279,1455648213.99486517906188964844,96
280,1455648214.04451465606689453125,96
281,1455648214.09421038627624511719,96
282,1455648214.14484715461730957031,96
283,1455648214.19430947303771972656,96
284,1455648214.24499106407165527344,96
285,1455648214.29455542564392089844,96
286,1455648214.34391164779663085938,96
287,1455648214.39440464973449707031,96
288,1455648214.44491457939147949219,96
289,1455648214.494586944580078125,96
290,1455648214.54487466812133789062,96
291,1455648214.59445595741271972656,96
292,1455648214.64490556716918945312,96
293,1455648214.69442987442016601562,96
294,1455648214.74484014511108398438,96
295,1455648214.7943115234375,96
296,1455648214.84495377540588378906,96
297,1455648214.89434838294982910156,96
298,1455648214.94394135475158691406,96
299,1455648214.99438142776489257812,96
300,1455648215.04500746726989746094,96
301,1455648215.09476161003112792969,96
302,1455648215.14430832862854003906,96
303,1455648215.19491648674011230469,96
304,1455648215.24444270133972167969,96
305,1455648215.29400539398193359375,96
306,1455648215.34442353248596191406,96
307,1455648215.39403200149536132812,96
308,1455648215.44449543952941894531,96
309,1455648215.49506998062133789062,96
310,1455648215.54459905624389648438,96
311,1455648215.59433007240295410156,96
312,1455648215.64486789703369140625,96
313,1455648215.694286346435546875,96
314,1455648215.74491667747497558594,96
315,1455648215.79431796073913574219,96
316,1455648215.84501957893371582031,96
317,1455648215.89443182945251464844,96
318,1455648215.94507336616516113281,96
319,1455648215.99455785751342773438,96
320,1455648216.04516315460205078125,96
321,1455648216.09489226341247558594,96
322,1455648216.14432382583618164062,96
323,1455648216.19501805305480957031,96
324,1455648216.24461293220520019531,96
325,1455648216.29437375068664550781,96
326,1455648216.34485983848571777344,96
327,1455648216.39439749717712402344,96
328,1455648216.44489288330078125,96
329,1455648216.49440407752990722656,96
330,1455648216.54483342170715332031,96
331,1455648216.59426832199096679688,96
332,1455648216.64497470855712890625,96
333,1455648216.69443655014038085938,96
334,1455648216.74497056007385253906,96
335,1455648216.79442620277404785156,96
336,1455648216.84500527381896972656,96
337,1455648216.89457845687866210938,96
338,1455648216.9440784454345703125,96
339,1455648216.99454259872436523438,96
340,1455648217.04487943649291992188,96
341,1455648217.09445667266845703125,96
342,1455648217.14483165740966796875,96
343,1455648217.19458985328674316406,96
344,1455648217.24393916130065917969,96
345,1455648217.29460930824279785156,96
346,1455648217.34413623809814453125,96
347,1455648217.39456629753112792969,96
348,1455648217.44430112838745117188,96
349,1455648217.49463438987731933594,96
350,1455648217.54436159133911132812,96
351,1455648217.59484696388244628906,96
352,1455648217.64439344406127929688,96
353,1455648217.69487690925598144531,96
354,1455648217.7444171905517578125,96
355,1455648217.79476261138916015625,96
356,1455648217.84428119659423828125,96
357,1455648217.89463782310485839844,96
358,1455648217.94409012794494628906,96
359,1455648217.99479556083679199219,96
360,1455648218.04420495033264160156,96
361,1455648218.09480071067810058594,96
362,1455648218.14419221878051757812,96
363,1455648218.19495153427124023438,96
364,1455648218.24453139305114746094,96
365,1455648218.29500937461853027344,96
366,1455648218.34450006484985351562,96
367,1455648218.39494538307189941406,96
368,1455648218.44467091560363769531,96
369,1455648218.49399685859680175781,96
370,1455648218.54457783699035644531,96
371,1455648218.59393405914306640625,96
372,1455648218.6445140838623046875,96
373,1455648218.69392561912536621094,96
374,1455648218.74452829360961914062,96
375,1455648218.79503870010375976562,96
376,1455648218.84447741508483886719,96
377,1455648218.89401173591613769531,96
378,1455648218.94455409049987792969,96
379,1455648218.99408316612243652344,96
380,1455648219.04464983940124511719,96
381,1455648219.09448218345642089844,96
382,1455648219.14496135711669921875,96
383,1455648219.19466805458068847656,96
384,1455648219.24420666694641113281,96
385,1455648219.29466843605041503906,96
386,1455648219.344280242919921875,96
387,1455648219.39467453956604003906,96
388,1455648219.44414114952087402344,96
389,1455648219.49458360671997070312,96
390,1455648219.54410290718078613281,96
391,1455648219.59448981285095214844,96
392,1455648219.64508557319641113281,96
393,1455648219.694644927978515625,96
394,1455648219.74398326873779296875,96
395,1455648219.79459071159362792969,96
396,1455648219.84395861625671386719,96
397,1455648219.89442300796508789062,96
398,1455648219.94491505622863769531,96
399,1455648219.99451279640197753906,96
400,1455648220.04498958587646484375,96
401,1455648220.09482860565185546875,96
402,1455648220.14441061019897460938,96
403,1455648220.19491934776306152344,96
404,1455648220.24453449249267578125,96
405,1455648220.29484724998474121094,96
406,1455648220.34444904327392578125,96
407,1455648220.3949184417724609375,96
408,1455648220.44451403617858886719,96
409,1455648220.49491834640502929688,96
410,1455648220.54447603225708007812,96
411,1455648220.59496927261352539062,96
412,1455648220.64433789253234863281,96
413,1455648220.69504308700561523438,96
414,1455648220.74460339546203613281,96
415,1455648220.79427480697631835938,96
416,1455648220.84477400779724121094,96
417,1455648220.89440798759460449219,96
418,1455648220.94492077827453613281,96
419,1455648220.99444556236267089844,96
420,1455648221.04494261741638183594,96
421,1455648221.09462332725524902344,96
422,1455648221.1442661285400390625,96
423,1455648221.19482278823852539062,96
424,1455648221.24444699287414550781,96
425,1455648221.29480147361755371094,96
426,1455648221.34448194503784179688,96
427,1455648221.39495801925659179688,96
428,1455648221.44443178176879882812,96
429,1455648221.49483895301818847656,96
430,1455648221.54428982734680175781,96
431,1455648221.59490227699279785156,96
432,1455648221.64431118965148925781,96
433,1455648221.69493436813354492188,96
434,1455648221.74436736106872558594,96
435,1455648221.79490709304809570312,96
436,1455648221.84440445899963378906,96
437,1455648221.89496779441833496094,96
438,1455648221.94448375701904296875,96
439,1455648221.99486994743347167969,96
440,1455648222.04453301429748535156,96
441,1455648222.09421253204345703125,96
442,1455648222.14488768577575683594,96
443,1455648222.194454193115234375,96
444,1455648222.24519133567810058594,96
445,1455648222.29464125633239746094,96
446,1455648222.34419107437133789062,96
447,1455648222.39459538459777832031,96
448,1455648222.44463968276977539062,96
449,1455648222.49421167373657226562,96
450,1455648222.54467821121215820312,96
451,1455648222.59424734115600585938,96
452,1455648222.644664764404296875,96
453,1455648222.69424343109130859375,96
454,1455648222.7446956634521484375,96
455,1455648222.7941150665283203125,96
456,1455648222.84454107284545898438,96
457,1455648222.89497542381286621094,96
458,1455648222.94462299346923828125,96
459,1455648222.99498033523559570312,96
460,1455648223.04467749595642089844,96
461,1455648223.09437274932861328125,96
462,1455648223.14502072334289550781,96
463,1455648223.1945323944091796875,96
464,1455648223.24503040313720703125,96
465,1455648223.29453945159912109375,96
466,1455648223.34389901161193847656,96
467,1455648223.39441823959350585938,96
468,1455648223.44491600990295410156,96
469,1455648223.49459290504455566406,96
470,1455648223.5439815521240234375,96
471,1455648223.59453105926513671875,96
472,1455648223.64395475387573242188,96
473,1455648223.6945476531982421875,96
474,1455648223.74494791030883789062,96
475,1455648223.79431700706481933594,96
476,1455648223.84493231773376464844,96
477,1455648223.89433217048645019531,96
478,1455648223.94392704963684082031,96
479,1455648223.994384765625,96
480,1455648224.04497861862182617188,96
481,1455648224.09465503692626953125,96
482,1455648224.14437961578369140625,96
483,1455648224.19494533538818359375,96
484,1455648224.24439072608947753906,96
485,1455648224.29488706588745117188,96
486,1455648224.34438347816467285156,96
487,1455648224.39400959014892578125,96
488,1455648224.44449114799499511719,96
489,1455648224.49499845504760742188,96
490,1455648224.54450273513793945312,96
491,1455648224.59507274627685546875,96
492,1455648224.6445407867431640625,96
493,1455648224.69498944282531738281,96
494,1455648224.74459147453308105469,96
495,1455648224.79502272605895996094,96
496,1455648224.84458470344543457031,96
497,1455648224.89397287368774414062,96
498,1455648224.94458603858947753906,96
499,1455648224.9949703216552734375,96
500,1455648225.04458475112915039062,96
501,1455648225.094287872314453125,96
502,1455648225.14475011825561523438,96
503,1455648225.19445919990539550781,96
504,1455648225.244907379150390625,96
505,1455648225.29453587532043457031,96
506,1455648225.34395956993103027344,96
507,1455648225.39442920684814453125,96
508,1455648225.44491219520568847656,96
509,1455648225.49444031715393066406,96
510,1455648225.54480910301208496094,96
511,1455648225.59427952766418457031,96
512,1455648225.64499044418334960938,96
513,1455648225.69440984725952148438,96
514,1455648225.74489116668701171875,96
515,1455648225.79433798789978027344,96
516,1455648225.84499096870422363281,96
