id, time (s), size (bits)
0,1456030379.74032688140869140625,1456030379.74069738388061523438,7824
1,1456030379.83670639991760253906,1456030379.83691453933715820312,7792
2,1456030379.93376421928405761719,1456030379.93397617340087890625,7744
3,1456030380.05724859237670898438,1456030380.05746507644653320312,7680
4,1456030380.23319125175476074219,1456030380.2334003448486328125,7560
5,1456030380.33646678924560546875,1456030380.33668494224548339844,7480
6,1456030380.43619513511657714844,1456030380.43640780448913574219,7400
7,1456030380.62114691734313964844,1456030380.62136101722717285156,7232
8,1456030380.73305177688598632812,1456030380.73326444625854492188,7120
9,1456030380.79523301124572753906,1456030380.79556155204772949219,7048
10,1456030380.93689966201782226562,1456030380.93711519241333007812,6896
11,1456030381.03327393531799316406,1456030381.03348708152770996094,6784
12,1456030381.13663077354431152344,1456030381.13684916496276855469,6664
13,1456030381.3185291290283203125,1456030381.31873917579650878906,6440
14,1456030381.4181652069091796875,1456030381.41837167739868164062,6320
15,1456030381.51877188682556152344,1456030381.51898169517517089844,6192
16,1456030381.62155866622924804688,1456030381.62176942825317382812,6072
17,1456030381.71810603141784667969,1456030381.71832442283630371094,5944
18,1456030381.81851816177368164062,1456030381.81873607635498046875,5816
19,1456030381.91749596595764160156,1456030381.91772127151489257812,5696
20,1456030382.01875901222229003906,1456030382.01897192001342773438,5576
21,1456030382.118045806884765625,1456030382.11825656890869140625,5456
22,1456030382.218631744384765625,1456030382.21884465217590332031,5336
23,1456030382.31842851638793945312,1456030382.31864762306213378906,5224
24,1456030382.3450489044189453125,1456030382.34533786773681640625,5200
25,1456030382.43612623214721679688,1456030382.4363422393798828125,5104
26,1456030382.51802849769592285156,1456030382.51823782920837402344,5016
27,1456030382.62171483039855957031,1456030382.62192177772521972656,4920
28,1456030382.71845865249633789062,1456030382.71866893768310546875,4824
29,1456030382.81855702400207519531,1456030382.81877660751342773438,4736
30,1456030382.91803264617919921875,1456030382.91824674606323242188,4656
31,1456030383.01914858818054199219,1456030383.01936435699462890625,4584
32,1456030383.03596448898315429688,1456030383.03636121749877929688,4576
33,1456030383.12085127830505371094,1456030383.12105774879455566406,4520
34,1456030383.21788001060485839844,1456030383.21808481216430664062,4464
35,1456030383.3177318572998046875,1456030383.31794190406799316406,4416
36,1456030383.41859912872314453125,1456030383.41881442070007324219,4376
37,1456030383.43662595748901367188,1456030383.43683075904846191406,4368
38,1456030383.53323483467102050781,1456030383.53349351882934570312,4336
39,1456030383.63704419136047363281,1456030383.63727903366088867188,4312
40,1456030383.73341012001037597656,1456030383.73361659049987792969,4296
41,1456030383.83632254600524902344,1456030383.83653998374938964844,4296
42,1456030383.93660688400268554688,1456030383.93681645393371582031,4296
43,1456030384.03708958625793457031,1456030384.03730750083923339844,4304
44,1456030384.13340687751770019531,1456030384.13361763954162597656,4328
45,1456030384.23663163185119628906,1456030384.23688840866088867188,4360
46,1456030384.33246612548828125,1456030384.33268427848815917969,4392
47,1456030384.43698573112487792969,1456030384.43719625473022460938,4440
48,1456030384.53307390213012695312,1456030384.53328561782836914062,4496
49,1456030384.6369609832763671875,1456030384.63719606399536132812,4560
50,1456030384.73318314552307128906,1456030384.73340106010437011719,4624
51,1456030384.83652710914611816406,1456030384.83674359321594238281,4704
52,1456030384.9366703033447265625,1456030384.93697595596313476562,4784
53,1456030385.03661751747131347656,1456030385.03683018684387207031,4872
54,1456030385.13288855552673339844,1456030385.13309979438781738281,4968
55,1456030385.23659014701843261719,1456030385.236846923828125,5072
56,1456030385.33621263504028320312,1456030385.33642125129699707031,5176
57,1456030385.43240666389465332031,1456030385.43262147903442382812,5280
58,1456030385.53593993186950683594,1456030385.53651642799377441406,5400
59,1456030385.63689947128295898438,1456030385.63712358474731445312,5520
60,1456030385.73321843147277832031,1456030385.73343396186828613281,5632
61,1456030385.83678650856018066406,1456030385.83700537681579589844,5760
62,1456030385.93293261528015136719,1456030385.93314051628112792969,5880
63,1456030386.03690075874328613281,1456030386.03712725639343261719,6016
64,1456030386.13730621337890625,1456030386.13751268386840820312,6136
65,1456030386.23674607276916503906,1456030386.23695254325866699219,6264
66,1456030386.3366832733154296875,1456030386.33689475059509277344,6392
67,1456030386.43642425537109375,1456030386.43664097785949707031,6512
68,1456030386.53604483604431152344,1456030386.53625392913818359375,6632
69,1456030386.63716936111450195312,1456030386.637393951416015625,6752
70,1456030386.73366522789001464844,1456030386.73388028144836425781,6864
71,1456030386.83647704124450683594,1456030386.83669114112854003906,6976
72,1456030386.93378520011901855469,1456030386.9339962005615234375,7080
73,1456030387.05022025108337402344,1456030387.05042767524719238281,7184
74,1456030387.22141265869140625,1456030387.22180962562561035156,7360
75,1456030387.31785821914672851562,1456030387.31806778907775878906,7448
76,1456030387.41809701919555664062,1456030387.41831254959106445312,7528
77,1456030387.53321433067321777344,1456030387.53342556953430175781,7600
78,1456030387.65701770782470703125,1456030387.65723419189453125,7680
79,1456030387.81855082511901855469,1456030387.81878376007080078125,7768
80,1456030387.91906023025512695312,1456030387.91927623748779296875,7808
81,1456030388.03260087966918945312,1456030388.03280949592590332031,7840
82,1456030388.15870380401611328125,1456030388.15891718864440917969,7872
83,1456030388.285190582275390625,1456030388.28551578521728515625,7888
84,1456030388.4182033538818359375,1456030388.41841292381286621094,7888
85,1456030388.53789567947387695312,1456030388.53810214996337890625,7880
86,1456030388.72037506103515625,1456030388.72058224678039550781,7832
87,1456030388.79233431816101074219,1456030388.79255175590515136719,7808
88,1456030388.91885280609130859375,1456030388.91906714439392089844,7752
89,1456030389.11833882331848144531,1456030389.11856222152709960938,7640
90,1456030389.21983695030212402344,1456030389.22005057334899902344,7568
91,1456030389.3102474212646484375,1456030389.31046128273010253906,7504
92,1456030389.43293237686157226562,1456030389.43314242362976074219,7400
93,1456030389.61894392967224121094,1456030389.61915802955627441406,7232
94,1456030389.71858668327331542969,1456030389.7187976837158203125,7128
95,1456030389.8253765106201171875,1456030389.825580596923828125,7016
96,1456030389.9132938385009765625,1456030389.91350865364074707031,6920
97,1456030390.03637027740478515625,1456030390.0365848541259765625,6784
98,1456030390.21869325637817382812,1456030390.21890473365783691406,6568
99,1456030390.31932973861694335938,1456030390.31954932212829589844,6440
100,1456030390.418720245361328125,1456030390.418926239013671875,6320
101,1456030390.51976871490478515625,1456030390.51997876167297363281,6192
102,1456030390.62196779251098632812,1456030390.62217187881469726562,6064
103,1456030390.71843957901000976562,1456030390.71866059303283691406,5944
104,1456030390.82178902626037597656,1456030390.82200288772583007812,5816
105,1456030390.918132781982421875,1456030390.91834425926208496094,5696
106,1456030391.01926326751708984375,1456030391.01947689056396484375,5576
107,1456030391.1220531463623046875,1456030391.12226033210754394531,5456
108,1456030391.21845197677612304688,1456030391.21866440773010253906,5336
109,1456030391.31927204132080078125,1456030391.31950092315673828125,5224
110,1456030391.41861748695373535156,1456030391.4188327789306640625,5120
111,1456030391.51957845687866210938,1456030391.51979303359985351562,5016
112,1456030391.61983656883239746094,1456030391.620044708251953125,4920
113,1456030391.63713359832763671875,1456030391.63734006881713867188,4896
114,1456030391.73760581016540527344,1456030391.73782944679260253906,4808
115,1456030391.81874060630798339844,1456030391.81895089149475097656,4736
116,1456030391.91819691658020019531,1456030391.91840648651123046875,4656
117,1456030392.01895308494567871094,1456030392.0191707611083984375,4584
118,1456030392.11948037147521972656,1456030392.11969232559204101562,4520
119,1456030392.13830232620239257812,1456030392.13852643966674804688,4512
120,1456030392.218791961669921875,1456030392.21899747848510742188,4464
121,1456030392.31824064254760742188,1456030392.31845498085021972656,4416
122,1456030392.41868829727172851562,1456030392.41889834403991699219,4376
123,1456030392.51959228515625,1456030392.519802093505859375,4336
124,1456030392.53598737716674804688,1456030392.53638577461242675781,4336
125,1456030392.62135004997253417969,1456030392.62155222892761230469,4312
126,1456030392.71786046028137207031,1456030392.71807360649108886719,4296
127,1456030392.81840372085571289062,1456030392.81863141059875488281,4296
128,1456030392.9200801849365234375,1456030392.92029094696044921875,4296
129,1456030392.93256354331970214844,1456030392.93384528160095214844,4296
130,1456030393.03276896476745605469,1456030393.03297591209411621094,4304
131,1456030393.13703131675720214844,1456030393.13724207878112792969,4328
132,1456030393.19718766212463378906,1456030393.19739937782287597656,4344
133,1456030393.23637866973876953125,1456030393.23662734031677246094,4360
134,1456030393.31841993331909179688,1456030393.31863641738891601562,4384
135,1456030393.43499255180358886719,1456030393.43520879745483398438,4440
136,1456030393.51944041252136230469,1456030393.51965570449829101562,4488
137,1456030393.531284332275390625,1456030393.53259921073913574219,4488
138,1456030393.63670206069946289062,1456030393.63691210746765136719,4560
139,1456030393.71810245513916015625,1456030393.71832609176635742188,4616
140,1456030393.736278533935546875,1456030393.73648285865783691406,4624
141,1456030393.83285355567932128906,1456030393.83306813240051269531,4696
142,1456030393.93657088279724121094,1456030393.93679141998291015625,4784
143,1456030394.03291344642639160156,1456030394.03312945365905761719,4872
144,1456030394.13678050041198730469,1456030394.13699436187744140625,4968
145,1456030394.23262786865234375,1456030394.23283839225769042969,5064
146,1456030394.33639240264892578125,1456030394.33660864830017089844,5176
147,1456030394.43250966072082519531,1456030394.43271970748901367188,5280
148,1456030394.53605604171752929688,1456030394.53627133369445800781,5400
149,1456030394.63930273056030273438,1456030394.63952493667602539062,5520
150,1456030394.73591709136962890625,1456030394.73653388023376464844,5640
151,1456030394.83248877525329589844,1456030394.83269977569580078125,5760
152,1456030394.93289399147033691406,1456030394.93310570716857910156,5880
153,1456030395.03915119171142578125,1456030395.03935956954956054688,6016
154,1456030395.13619256019592285156,1456030395.13640236854553222656,6136
155,1456030395.23217248916625976562,1456030395.23238301277160644531,6256
156,1456030395.3363933563232421875,1456030395.33661127090454101562,6384
157,1456030395.43671536445617675781,1456030395.43692922592163085938,6512
158,1456030395.53320479393005371094,1456030395.53341841697692871094,6632
159,1456030395.63678741455078125,1456030395.6370105743408203125,6752
160,1456030395.7329120635986328125,1456030395.73312687873840332031,6864
161,1456030395.8357982635498046875,1456030395.83600616455078125,6976
162,1456030395.93219399452209472656,1456030395.93240118026733398438,7080
163,1456030396.03210234642028808594,1456030396.03231382369995117188,7184
164,1456030396.1368427276611328125,1456030396.13705158233642578125,7280
165,1456030396.25111865997314453125,1456030396.25133371353149414062,7376
166,1456030396.43654298782348632812,1456030396.43675327301025390625,7536
167,1456030396.51856088638305664062,1456030396.518772125244140625,7600
168,1456030396.64252996444702148438,1456030396.6427459716796875,7680
169,1456030396.7977008819580078125,1456030396.79793310165405273438,7760
170,1456030396.91803407669067382812,1456030396.91824269294738769531,7808
171,1456030397.03639531135559082031,1456030397.03660464286804199219,7848
172,1456030397.11843848228454589844,1456030397.11864185333251953125,7872
173,1456030397.24362921714782714844,1456030397.24383950233459472656,7888
174,1456030397.40754818916320800781,1456030397.4077625274658203125,7888
175,1456030397.51861619949340820312,1456030397.51883721351623535156,7880
176,1456030397.63367462158203125,1456030397.63388371467590332031,7856
177,1456030397.73555541038513183594,1456030397.73576641082763671875,7824
178,1456030397.93444776535034179688,1456030397.93465900421142578125,7744
179,1456030398.01915884017944335938,1456030398.01937985420227050781,7696
180,1456030398.13426852226257324219,1456030398.1344814300537109375,7632
181,1456030398.24625396728515625,1456030398.24646735191345214844,7552
182,1456030398.41942739486694335938,1456030398.41963958740234375,7416
183,1456030398.51931452751159667969,1456030398.51953744888305664062,7328
184,1456030398.61951088905334472656,1456030398.61971974372863769531,7232
185,1456030398.73355245590209960938,1456030398.73376727104187011719,7112
186,1456030398.843013763427734375,1456030398.84322881698608398438,7000
187,1456030399.0196704864501953125,1456030399.01988339424133300781,6800
188,1456030399.12168025970458984375,1456030399.12189197540283203125,6688
189,1456030399.21812081336975097656,1456030399.21835017204284667969,6568
190,1456030399.31863188743591308594,1456030399.318843841552734375,6440
191,1456030399.41960406303405761719,1456030399.41982626914978027344,6320
192,1456030399.5219402313232421875,1456030399.52215027809143066406,6192
193,1456030399.61803269386291503906,1456030399.61824297904968261719,6072
194,1456030399.7185115814208984375,1456030399.71872067451477050781,5944
195,1456030399.81931734085083007812,1456030399.8195323944091796875,5816
196,1456030399.91869997978210449219,1456030399.91890788078308105469,5696
197,1456030400.01973271369934082031,1456030400.01994538307189941406,5576
198,1456030400.11859607696533203125,1456030400.11880588531494140625,5456
199,1456030400.21802997589111328125,1456030400.21825432777404785156,5336
200,1456030400.31847691535949707031,1456030400.31868696212768554688,5224
201,1456030400.41921448707580566406,1456030400.41942667961120605469,5120
202,1456030400.51900577545166015625,1456030400.5192203521728515625,5016
203,1456030400.619106292724609375,1456030400.61931657791137695312,4920
204,1456030400.71850943565368652344,1456030400.71871852874755859375,4824
205,1456030400.732635498046875,1456030400.73283553123474121094,4816
206,1456030400.83616900444030761719,1456030400.836383819580078125,4728
207,1456030400.91865468025207519531,1456030400.91886734962463378906,4656
208,1456030401.01955890655517578125,1456030401.01977252960205078125,4584
209,1456030401.11881732940673828125,1456030401.11905837059020996094,4520
210,1456030401.13979601860046386719,1456030401.14000606536865234375,4512
211,1456030401.23624730110168457031,1456030401.2364635467529296875,4456
212,1456030401.31866145133972167969,1456030401.31887936592102050781,4416
213,1456030401.41937208175659179688,1456030401.41958355903625488281,4376
214,1456030401.51893520355224609375,1456030401.51915025711059570312,4336
215,1456030401.53432202339172363281,1456030401.53452730178833007812,4336
216,1456030401.61896228790283203125,1456030401.619171142578125,4312
217,1456030401.71864533424377441406,1456030401.71886014938354492188,4296
218,1456030401.81822919845581054688,1456030401.81844186782836914062,4296
219,1456030401.83719325065612792969,1456030401.83741068840026855469,4296
220,1456030401.91853189468383789062,1456030401.91874837875366210938,4296
221,1456030402.03661322593688964844,1456030402.03682923316955566406,4304
222,1456030402.11723923683166503906,1456030402.11744952201843261719,4320
223,1456030402.13657093048095703125,1456030402.13679075241088867188,4328
224,1456030402.21829843521118164062,1456030402.21851396560668945312,4352
225,1456030402.33415627479553222656,1456030402.33436560630798339844,4392
226,1456030402.41885709762573242188,1456030402.41907215118408203125,4432
227,1456030402.43661332130432128906,1456030402.43682241439819335938,4440
228,1456030402.53335595130920410156,1456030402.53360390663146972656,4496
229,1456030402.63648724555969238281,1456030402.63671612739562988281,4560
230,1456030402.73266148567199707031,1456030402.73286795616149902344,4624
231,1456030402.83665060997009277344,1456030402.83686709403991699219,4704
232,1456030402.93291687965393066406,1456030402.93312883377075195312,4784
233,1456030403.03624415397644042969,1456030403.03646349906921386719,4872
234,1456030403.13238787651062011719,1456030403.13260531425476074219,4968
235,1456030403.23324751853942871094,1456030403.23346042633056640625,5072
236,1456030403.33691334724426269531,1456030403.33712530136108398438,5176
237,1456030403.43332505226135253906,1456030403.43354320526123046875,5288
238,1456030403.53910660743713378906,1456030403.53931713104248046875,5400
239,1456030403.63614368438720703125,1456030403.63637256622314453125,5520
240,1456030403.73240685462951660156,1456030403.73262786865234375,5632
241,1456030403.83271837234497070312,1456030403.8329315185546875,5760
242,1456030403.93701267242431640625,1456030403.93723154067993164062,5888
243,1456030404.03314828872680664062,1456030404.03335976600646972656,6008
244,1456030404.13629150390625,1456030404.13650035858154296875,6136
245,1456030404.23721766471862792969,1456030404.2374324798583984375,6264
246,1456030404.33349704742431640625,1456030404.33370995521545410156,6384
247,1456030404.436725616455078125,1456030404.43693375587463378906,6512
248,1456030404.53309273719787597656,1456030404.53329968452453613281,6624
249,1456030404.63677453994750976562,1456030404.63700795173645019531,6752
250,1456030404.73675298690795898438,1456030404.73696422576904296875,6864
251,1456030404.8331775665283203125,1456030404.83339214324951171875,6976
252,1456030404.93591642379760742188,1456030404.93612623214721679688,7080
253,1456030405.0364742279052734375,1456030405.036685943603515625,7184
254,1456030405.13249564170837402344,1456030405.13270831108093261719,7280
255,1456030405.2489070892333984375,1456030405.24912786483764648438,7376
256,1456030405.41939258575439453125,1456030405.41960740089416503906,7528
257,1456030405.53477120399475097656,1456030405.53498005867004394531,7608
258,1456030405.62883996963500976562,1456030405.62905073165893554688,7664
259,1456030405.72534775733947753906,1456030405.72556090354919433594,7720
260,1456030405.84257841110229492188,1456030405.84278440475463867188,7776
261,1456030406.03597426414489746094,1456030406.03625464439392089844,7848
262,1456030406.1175060272216796875,1456030406.11771512031555175781,7872
263,1456030406.24315667152404785156,1456030406.24336886405944824219,7888
264,1456030406.40809607505798339844,1456030406.40831160545349121094,7888
265,1456030406.5185699462890625,1456030406.51878213882446289062,7880
266,1456030406.63330149650573730469,1456030406.63352298736572265625,7856
267,1456030406.73488569259643554688,1456030406.73509645462036132812,7824
268,1456030406.936580657958984375,1456030406.93678879737854003906,7744
269,1456030407.01811814308166503906,1456030407.0183849334716796875,7696
270,1456030407.13289976119995117188,1456030407.13311290740966796875,7632
271,1456030407.24790883064270019531,1456030407.24811959266662597656,7552
272,1456030407.419158935546875,1456030407.41937518119812011719,7416
273,1456030407.51924419403076171875,1456030407.51945590972900390625,7328
274,1456030407.61901068687438964844,1456030407.61922526359558105469,7232
275,1456030407.73378467559814453125,1456030407.73399329185485839844,7112
276,1456030407.8459033966064453125,1456030407.84611415863037109375,7000
