id, time (s), size (bits)
9,1456030379.53104066848754882812,1456030379.53152561187744140625,7872
10,1456030379.6294536590576171875,1456030379.62973189353942871094,7856
11,1456030379.72870850563049316406,1456030379.72898316383361816406,7824
12,1456030379.82933950424194335938,1456030379.82961583137512207031,7784
13,1456030380.0290508270263671875,1456030380.029327392578125,7744
14,1456030380.12967729568481445312,1456030380.129955291748046875,7688
15,1456030380.22911190986633300781,1456030380.22938585281372070312,7624
16,1456030380.32870626449584960938,1456030380.32897782325744628906,7552
17,1456030380.43144130706787109375,1456030380.43171739578247070312,7480
18,1456030380.544040679931640625,1456030380.54433131217956542969,7392
19,1456030380.7294826507568359375,1456030380.72975826263427734375,7304
20,1456030380.82916760444641113281,1456030380.82944560050964355469,7208
21,1456030380.92962479591369628906,1456030380.92989277839660644531,7104
22,1456030381.0292510986328125,1456030381.02952361106872558594,7000
23,1456030381.12877869606018066406,1456030381.1290531158447265625,6888
24,1456030381.22923731803894042969,1456030381.22951531410217285156,6776
25,1456030381.3296718597412109375,1456030381.32994532585144042969,6656
26,1456030381.42940068244934082031,1456030381.42966890335083007812,6536
27,1456030381.5288295745849609375,1456030381.52909827232360839844,6416
28,1456030381.62909269332885742188,1456030381.62937331199645996094,6288
29,1456030381.72860240936279296875,1456030381.72887778282165527344,6168
30,1456030381.82950162887573242188,1456030381.82978606224060058594,6040
31,1456030381.92913269996643066406,1456030381.92940616607666015625,5912
32,1456030382.02962088584899902344,1456030382.02989840507507324219,5792
33,1456030382.12892770767211914062,1456030382.12920212745666503906,5664
34,1456030382.14083576202392578125,1456030382.14254093170166015625,5544
35,1456030382.22953176498413085938,1456030382.22980189323425292969,5424
36,1456030382.32893872261047363281,1456030382.32921385765075683594,5312
37,1456030382.42969202995300292969,1456030382.42996525764465332031,5200
38,1456030382.52902102470397949219,1456030382.52930879592895507812,5096
39,1456030382.54429173469543457031,1456030382.5445575714111328125,4992
40,1456030382.62964653968811035156,1456030382.6299190521240234375,4896
41,1456030382.72921967506408691406,1456030382.72950482368469238281,4800
42,1456030382.82956671714782714844,1456030382.82983279228210449219,4720
43,1456030382.92926073074340820312,1456030382.92953467369079589844,4640
44,1456030383.02848386764526367188,1456030383.02875828742980957031,4568
45,1456030383.12894964218139648438,1456030383.12932920455932617188,4504
46,1456030383.22947859764099121094,1456030383.2298564910888671875,4448
47,1456030383.32900667190551757812,1456030383.32928466796875,4400
48,1456030383.42947983741760253906,1456030383.42977380752563476562,4368
49,1456030383.52901983261108398438,1456030383.52929162979125976562,4336
50,1456030383.62955212593078613281,1456030383.62984061241149902344,4312
51,1456030383.72915816307067871094,1456030383.72942996025085449219,4296
52,1456030383.829570770263671875,1456030383.82984805107116699219,4296
53,1456030383.92930364608764648438,1456030383.9295806884765625,4296
54,1456030384.0296878814697265625,1456030384.03021121025085449219,4312
55,1456030384.12894201278686523438,1456030384.12921404838562011719,4328
56,1456030384.22942590713500976562,1456030384.22970557212829589844,4360
57,1456030384.32897090911865234375,1456030384.32924795150756835938,4400
58,1456030384.42953562736511230469,1456030384.42983102798461914062,4448
59,1456030384.52910876274108886719,1456030384.529392242431640625,4496
60,1456030384.62942099571228027344,1456030384.62969183921813964844,4560
61,1456030384.72926497459411621094,1456030384.72953677177429199219,4632
62,1456030384.82937192916870117188,1456030384.82964730262756347656,4704
63,1456030384.92904067039489746094,1456030384.92931056022644042969,4792
64,1456030385.02981209754943847656,1456030385.03008961677551269531,4880
65,1456030385.12904071807861328125,1456030385.12930941581726074219,4976
66,1456030385.22861909866333007812,1456030385.22889733314514160156,5080
67,1456030385.32916116714477539062,1456030385.32943320274353027344,5184
68,1456030385.42889714241027832031,1456030385.42920565605163574219,5296
69,1456030385.52905130386352539062,1456030385.52931976318359375,5408
70,1456030385.62957811355590820312,1456030385.62986111640930175781,5528
71,1456030385.72909188270568847656,1456030385.72937059402465820312,5648
72,1456030385.82943320274353027344,1456030385.82972383499145507812,5768
73,1456030385.92916703224182128906,1456030385.92944169044494628906,5896
74,1456030386.02951884269714355469,1456030386.03001284599304199219,6024
75,1456030386.12922716140747070312,1456030386.12949633598327636719,6144
76,1456030386.22955179214477539062,1456030386.22982501983642578125,6272
77,1456030386.32918310165405273438,1456030386.32946610450744628906,6392
78,1456030386.42878293991088867188,1456030386.42907071113586425781,6520
79,1456030386.52899193763732910156,1456030386.52926945686340332031,6640
80,1456030386.62954759597778320312,1456030386.62981820106506347656,6760
81,1456030386.72879314422607421875,1456030386.72906374931335449219,6872
82,1456030386.82932686805725097656,1456030386.82960176467895507812,6984
83,1456030386.92886137962341308594,1456030386.92913389205932617188,7088
84,1456030387.02930760383605957031,1456030387.02957987785339355469,7192
85,1456030387.12866091728210449219,1456030387.12893247604370117188,7288
86,1456030387.22900748252868652344,1456030387.22928833961486816406,7384
87,1456030387.32962107658386230469,1456030387.32988786697387695312,7464
88,1456030387.43790555000305175781,1456030387.43852686882019042969,7544
89,1456030387.62897777557373046875,1456030387.62924432754516601562,7616
90,1456030387.72949457168579101562,1456030387.72976231575012207031,7680
91,1456030387.829204559326171875,1456030387.82947087287902832031,7736
92,1456030387.929714202880859375,1456030387.92999815940856933594,7784
93,1456030388.03906965255737304688,1456030388.0393848419189453125,7816
94,1456030388.22910904884338378906,1456030388.22938036918640136719,7848
95,1456030388.329654693603515625,1456030388.32992887496948242188,7872
96,1456030388.42940306663513183594,1456030388.42967581748962402344,7888
97,1456030388.53102231025695800781,1456030388.53130435943603515625,7888
98,1456030388.72971010208129882812,1456030388.730010986328125,7888
99,1456030388.82930254936218261719,1456030388.82957482337951660156,7872
100,1456030388.92874598503112792969,1456030388.92902350425720214844,7856
101,1456030389.0305843353271484375,1456030389.03085803985595703125,7824
102,1456030389.2288837432861328125,1456030389.22915697097778320312,7784
103,1456030389.32938361167907714844,1456030389.32965850830078125,7744
104,1456030389.42894148826599121094,1456030389.4292163848876953125,7688
105,1456030389.52952432632446289062,1456030389.52980160713195800781,7624
106,1456030389.63581943511962890625,1456030389.63608694076538085938,7552
107,1456030389.82931756973266601562,1456030389.82959294319152832031,7480
108,1456030389.9289093017578125,1456030389.92920255661010742188,7392
109,1456030390.02913641929626464844,1456030390.02940821647644042969,7304
110,1456030390.12965631484985351562,1456030390.12992954254150390625,7208
111,1456030390.22920513153076171875,1456030390.22948122024536132812,7104
112,1456030390.32977724075317382812,1456030390.33004474639892578125,7000
113,1456030390.42941451072692871094,1456030390.42968535423278808594,6888
114,1456030390.52893424034118652344,1456030390.52920484542846679688,6776
115,1456030390.629520416259765625,1456030390.62979269027709960938,6656
116,1456030390.72867560386657714844,1456030390.72894883155822753906,6536
117,1456030390.82914328575134277344,1456030390.82941317558288574219,6416
118,1456030390.9298248291015625,1456030390.93011379241943359375,6288
119,1456030391.0290050506591796875,1456030391.0292758941650390625,6168
120,1456030391.12950396537780761719,1456030391.12978029251098632812,6040
121,1456030391.22914028167724609375,1456030391.22940850257873535156,5912
122,1456030391.32976937294006347656,1456030391.33004689216613769531,5792
123,1456030391.42999577522277832031,1456030391.43026447296142578125,5664
124,1456030391.52965211868286132812,1456030391.52992582321166992188,5544
125,1456030391.62896442413330078125,1456030391.62923836708068847656,5424
126,1456030391.640949249267578125,1456030391.64267373085021972656,5312
127,1456030391.72863459587097167969,1456030391.72890567779541015625,5200
128,1456030391.82909059524536132812,1456030391.82938170433044433594,5096
129,1456030391.92969536781311035156,1456030391.92996931076049804688,4992
130,1456030392.02928423881530761719,1456030392.02955746650695800781,4896
131,1456030392.04140758514404296875,1456030392.04320383071899414062,4800
132,1456030392.12875771522521972656,1456030392.12903475761413574219,4720
133,1456030392.22910380363464355469,1456030392.22937631607055664062,4640
134,1456030392.24092125892639160156,1456030392.24258303642272949219,4568
135,1456030392.32977056503295898438,1456030392.33004879951477050781,4504
136,1456030392.42917633056640625,1456030392.42946720123291015625,4448
137,1456030392.52841949462890625,1456030392.52869653701782226562,4400
138,1456030392.54120159149169921875,1456030392.54293942451477050781,4368
139,1456030392.62900185585021972656,1456030392.6292743682861328125,4336
140,1456030392.72946953773498535156,1456030392.7297458648681640625,4312
141,1456030392.741718292236328125,1456030392.74351143836975097656,4296
142,1456030392.82897114753723144531,1456030392.82924556732177734375,4296
143,1456030392.9296112060546875,1456030392.92988514900207519531,4296
144,1456030393.02911829948425292969,1456030393.02939534187316894531,4312
145,1456030393.12948822975158691406,1456030393.12976408004760742188,4328
146,1456030393.2289276123046875,1456030393.22919917106628417969,4360
147,1456030393.32980442047119140625,1456030393.33007478713989257812,4400
148,1456030393.42898583412170410156,1456030393.42927861213684082031,4440
149,1456030393.52932572364807128906,1456030393.52959966659545898438,4496
150,1456030393.62878489494323730469,1456030393.62906146049499511719,4560
151,1456030393.72947263717651367188,1456030393.72974681854248046875,4632
152,1456030393.82893061637878417969,1456030393.82920742034912109375,4704
153,1456030393.92956304550170898438,1456030393.92983841896057128906,4792
154,1456030394.0290164947509765625,1456030394.02930235862731933594,4880
155,1456030394.12918114662170410156,1456030394.12945032119750976562,4976
156,1456030394.22867727279663085938,1456030394.22895765304565429688,5080
157,1456030394.32933640480041503906,1456030394.32961130142211914062,5184
158,1456030394.42882251739501953125,1456030394.42911601066589355469,5296
159,1456030394.52932953834533691406,1456030394.52960371971130371094,5408
160,1456030394.62856340408325195312,1456030394.62884187698364257812,5528
161,1456030394.72913527488708496094,1456030394.7294063568115234375,5648
162,1456030394.82942509651184082031,1456030394.82969546318054199219,5768
163,1456030394.9293193817138671875,1456030394.92960572242736816406,5896
164,1456030395.02833509445190429688,1456030395.02860236167907714844,6016
165,1456030395.12890219688415527344,1456030395.12916851043701171875,6144
166,1456030395.22917532920837402344,1456030395.22944211959838867188,6272
167,1456030395.32882213592529296875,1456030395.32908511161804199219,6392
168,1456030395.42948627471923828125,1456030395.42977452278137207031,6520
169,1456030395.528888702392578125,1456030395.52916264533996582031,6640
170,1456030395.62892866134643554688,1456030395.62916994094848632812,6760
171,1456030395.7282047271728515625,1456030395.72843074798583984375,6872
172,1456030395.82839179039001464844,1456030395.82863330841064453125,6984
173,1456030395.92937707901000976562,1456030395.929645538330078125,7088
174,1456030396.02893567085266113281,1456030396.02920961380004882812,7192
175,1456030396.12897181510925292969,1456030396.12923693656921386719,7288
176,1456030396.22955012321472167969,1456030396.22981739044189453125,7384
177,1456030396.32922387123107910156,1456030396.32949995994567871094,7464
178,1456030396.43777513504028320312,1456030396.43806767463684082031,7544
179,1456030396.62949681282043457031,1456030396.6297664642333984375,7616
180,1456030396.72909879684448242188,1456030396.72938394546508789062,7680
181,1456030396.829395294189453125,1456030396.82966399192810058594,7736
182,1456030396.92920279502868652344,1456030396.92947125434875488281,7784
183,1456030397.03955245018005371094,1456030397.03982830047607421875,7816
184,1456030397.22944569587707519531,1456030397.22971558570861816406,7848
185,1456030397.32912993431091308594,1456030397.329402923583984375,7872
186,1456030397.42959475517272949219,1456030397.42986035346984863281,7888
187,1456030397.53123378753662109375,1456030397.531505584716796875,7888
188,1456030397.72914552688598632812,1456030397.72943544387817382812,7888
189,1456030397.82962942123413085938,1456030397.82990145683288574219,7872
190,1456030397.92942142486572265625,1456030397.92968916893005371094,7856
191,1456030398.02995729446411132812,1456030398.03023004531860351562,7824
192,1456030398.22954034805297851562,1456030398.22981119155883789062,7784
193,1456030398.32913613319396972656,1456030398.32940769195556640625,7744
194,1456030398.42986750602722167969,1456030398.43015050888061523438,7688
195,1456030398.52927947044372558594,1456030398.52955412864685058594,7624
196,1456030398.636318206787109375,1456030398.6365909576416015625,7552
197,1456030398.82990121841430664062,1456030398.83018255233764648438,7480
198,1456030398.92936944961547851562,1456030398.92966699600219726562,7392
199,1456030399.02860760688781738281,1456030399.02888822555541992188,7304
200,1456030399.12916493415832519531,1456030399.12945580482482910156,7208
201,1456030399.22967767715454101562,1456030399.22995424270629882812,7104
202,1456030399.32924699783325195312,1456030399.32951688766479492188,7000
203,1456030399.42888951301574707031,1456030399.42916059494018554688,6888
204,1456030399.52919340133666992188,1456030399.52946376800537109375,6776
205,1456030399.62951159477233886719,1456030399.6297855377197265625,6656
206,1456030399.72914075851440429688,1456030399.72941493988037109375,6536
207,1456030399.82965874671936035156,1456030399.82992482185363769531,6416
208,1456030399.92929172515869140625,1456030399.92957854270935058594,6288
209,1456030400.02867913246154785156,1456030400.02895760536193847656,6160
210,1456030400.12913227081298828125,1456030400.12940311431884765625,6040
211,1456030400.22979903221130371094,1456030400.23007988929748535156,5912
212,1456030400.3290538787841796875,1456030400.32957148551940917969,5784
213,1456030400.4295368194580078125,1456030400.43005418777465820312,5664
214,1456030400.52914857864379882812,1456030400.52964162826538085938,5544
215,1456030400.62956476211547851562,1456030400.62988734245300292969,5424
216,1456030400.64176058769226074219,1456030400.64355039596557617188,5312
217,1456030400.72900104522705078125,1456030400.72927546501159667969,5200
218,1456030400.82952785491943359375,1456030400.82982730865478515625,5096
219,1456030400.92921590805053710938,1456030400.92949008941650390625,4992
220,1456030401.02952718734741210938,1456030401.02979898452758789062,4896
221,1456030401.04173755645751953125,1456030401.04353046417236328125,4800
222,1456030401.12906408309936523438,1456030401.12933349609375,4720
223,1456030401.22963809967041015625,1456030401.22990942001342773438,4640
224,1456030401.24158549308776855469,1456030401.2432613372802734375,4568
225,1456030401.32897973060607910156,1456030401.32925081253051757812,4504
226,1456030401.42979001998901367188,1456030401.43006229400634765625,4448
227,1456030401.52924656867980957031,1456030401.52952289581298828125,4400
228,1456030401.54119634628295898438,1456030401.54292774200439453125,4360
229,1456030401.62888288497924804688,1456030401.62916016578674316406,4336
230,1456030401.72905182838439941406,1456030401.72932291030883789062,4312
231,1456030401.74100708961486816406,1456030401.74273324012756347656,4296
232,1456030401.82952737808227539062,1456030401.82980132102966308594,4296
233,1456030401.92915439605712890625,1456030401.92942881584167480469,4296
234,1456030402.02932953834533691406,1456030402.02968311309814453125,4312
235,1456030402.12883234024047851562,1456030402.12910223007202148438,4328
236,1456030402.22947049140930175781,1456030402.22974538803100585938,4360
237,1456030402.32903504371643066406,1456030402.32931089401245117188,4400
238,1456030402.42947363853454589844,1456030402.42975759506225585938,4448
239,1456030402.52883243560791015625,1456030402.52910327911376953125,4496
240,1456030402.62946581840515136719,1456030402.62975192070007324219,4560
241,1456030402.72873735427856445312,1456030402.72900629043579101562,4632
242,1456030402.82920289039611816406,1456030402.82947778701782226562,4704
243,1456030402.92872834205627441406,1456030402.92900204658508300781,4792
244,1456030403.02914118766784667969,1456030403.0294170379638671875,4880
245,1456030403.12960529327392578125,1456030403.12988138198852539062,4976
246,1456030403.22917246818542480469,1456030403.22944688796997070312,5080
247,1456030403.32965612411499023438,1456030403.32992982864379882812,5184
248,1456030403.42928051948547363281,1456030403.42957377433776855469,5296
249,1456030403.52845454216003417969,1456030403.52873301506042480469,5408
250,1456030403.62890791893005371094,1456030403.62919068336486816406,5528
251,1456030403.72940278053283691406,1456030403.72968006134033203125,5648
252,1456030403.82882022857666015625,1456030403.82908773422241210938,5768
253,1456030403.92949962615966796875,1456030403.929767608642578125,5896
254,1456030404.02906012535095214844,1456030404.02933287620544433594,6016
255,1456030404.12927603721618652344,1456030404.12953686714172363281,6144
256,1456030404.23015260696411132812,1456030404.2304229736328125,6272
257,1456030404.32863593101501464844,1456030404.32890605926513671875,6392
258,1456030404.42918825149536132812,1456030404.42949986457824707031,6520
259,1456030404.52949881553649902344,1456030404.5297698974609375,6640
260,1456030404.62904119491577148438,1456030404.6293125152587890625,6760
261,1456030404.72971606254577636719,1456030404.72998571395874023438,6872
262,1456030404.82876920700073242188,1456030404.82903647422790527344,6984
263,1456030404.92882657051086425781,1456030404.92910742759704589844,7088
264,1456030405.02933812141418457031,1456030405.02963161468505859375,7192
265,1456030405.12871265411376953125,1456030405.12898421287536621094,7288
266,1456030405.229183197021484375,1456030405.22944712638854980469,7384
267,1456030405.32980513572692871094,1456030405.3300838470458984375,7464
268,1456030405.43821406364440917969,1456030405.43850016593933105469,7544
269,1456030405.62921452522277832031,1456030405.62949776649475097656,7616
270,1456030405.72872090339660644531,1456030405.72899079322814941406,7680
271,1456030405.82923603057861328125,1456030405.82950925827026367188,7736
272,1456030405.92848372459411621094,1456030405.92875242233276367188,7784
273,1456030406.03930592536926269531,1456030406.03957700729370117188,7816
274,1456030406.22874903678894042969,1456030406.22903370857238769531,7848
275,1456030406.32934427261352539062,1456030406.32961821556091308594,7872
276,1456030406.42877554893493652344,1456030406.42905139923095703125,7888
277,1456030406.53050160408020019531,1456030406.53077292442321777344,7888
278,1456030406.72926688194274902344,1456030406.72955155372619628906,7888
279,1456030406.82897114753723144531,1456030406.82924342155456542969,7872
280,1456030406.92869806289672851562,1456030406.92896866798400878906,7856
281,1456030407.03028774261474609375,1456030407.03056311607360839844,7824
282,1456030407.22903156280517578125,1456030407.22930860519409179688,7784
283,1456030407.32968664169311523438,1456030407.32995939254760742188,7744
284,1456030407.42924380302429199219,1456030407.42952084541320800781,7688
