id, time (s), size (bits)
0,1455472029.48297023773193359375,448
1,1455472029.5323028564453125,448
2,1455472029.58244633674621582031,440
3,1455472029.63204050064086914062,432
4,1455472029.68302226066589355469,432
5,1455472029.7330837249755859375,424
6,1455472029.78303432464599609375,424
7,1455472029.83287930488586425781,416
8,1455472029.88288831710815429688,408
9,1455472029.93282437324523925781,408
10,1455472029.98267960548400878906,400
11,1455472030.03261232376098632812,400
12,1455472030.08192682266235351562,392
13,1455472030.13316559791564941406,392
14,1455472030.18255877494812011719,392
15,1455472030.23300218582153320312,384
16,1455472030.28260135650634765625,384
17,1455472030.33290147781372070312,384
18,1455472030.38234949111938476562,376
19,1455472030.43299221992492675781,376
20,1455472030.48267269134521484375,376
21,1455472030.53191900253295898438,376
22,1455472030.58238315582275390625,376
23,1455472030.63278889656066894531,376
24,1455472030.68283104896545410156,376
25,1455472030.73287200927734375,376
26,1455472030.78296422958374023438,376
27,1455472030.83223271369934082031,376
28,1455472030.88262271881103515625,376
29,1455472030.93255066871643066406,376
30,1455472030.98270535469055175781,376
31,1455472031.03300571441650390625,376
32,1455472031.08244872093200683594,384
33,1455472031.13190245628356933594,384
34,1455472031.18233513832092285156,384
35,1455472031.23301410675048828125,384
36,1455472031.28238034248352050781,392
37,1455472031.33249068260192871094,392
38,1455472031.38282322883605957031,400
39,1455472031.43197655677795410156,400
40,1455472031.48217010498046875,408
41,1455472031.53256773948669433594,408
42,1455472031.58258032798767089844,416
43,1455472031.63200497627258300781,416
44,1455472031.68226933479309082031,424
45,1455472031.73231291770935058594,432
46,1455472031.78271174430847167969,432
47,1455472031.83281540870666503906,440
48,1455472031.88310408592224121094,448
49,1455472031.93224024772644042969,448
50,1455472031.98257946968078613281,456
51,1455472032.03212213516235351562,464
52,1455472032.08271050453186035156,472
53,1455472032.13306140899658203125,472
54,1455472032.18259477615356445312,480
55,1455472032.23296570777893066406,488
56,1455472032.28300213813781738281,488
57,1455472032.3320178985595703125,496
58,1455472032.38253045082092285156,504
59,1455472032.43263411521911621094,512
60,1455472032.48297047615051269531,512
61,1455472032.5327053070068359375,520
62,1455472032.58219480514526367188,528
63,1455472032.63258314132690429688,536
64,1455472032.68259549140930175781,536
65,1455472032.73310613632202148438,544
66,1455472032.78265857696533203125,552
67,1455472032.83202672004699707031,552
68,1455472032.88225245475769042969,560
69,1455472032.93250513076782226562,568
70,1455472032.98284363746643066406,568
71,1455472033.033050537109375,576
72,1455472033.08224630355834960938,576
73,1455472033.13200902938842773438,584
74,1455472033.18309903144836425781,584
75,1455472033.23250579833984375,592
76,1455472033.28314113616943359375,592
77,1455472033.3321628570556640625,600
78,1455472033.38291692733764648438,600
79,1455472033.43196320533752441406,600
80,1455472033.48299169540405273438,600
81,1455472033.53195643424987792969,608
82,1455472033.58194565773010253906,608
83,1455472033.63258004188537597656,608
84,1455472033.68268084526062011719,608
85,1455472033.73281621932983398438,608
86,1455472033.78246974945068359375,608
87,1455472033.83282041549682617188,608
88,1455472033.88212037086486816406,608
89,1455472033.93261265754699707031,608
90,1455472033.98301434516906738281,608
91,1455472034.03278851509094238281,608
92,1455472034.08202338218688964844,608
93,1455472034.13214516639709472656,608
94,1455472034.18229556083679199219,608
95,1455472034.2325763702392578125,600
96,1455472034.28241300582885742188,600
97,1455472034.33220553398132324219,600
98,1455472034.38233137130737304688,592
99,1455472034.43236041069030761719,592
100,1455472034.48203492164611816406,592
101,1455472034.53209447860717773438,584
102,1455472034.58293581008911132812,584
103,1455472034.63199186325073242188,576
104,1455472034.68321275711059570312,576
105,1455472034.7324008941650390625,568
106,1455472034.7823963165283203125,560
107,1455472034.83280825614929199219,560
108,1455472034.88193202018737792969,552
109,1455472034.93262982368469238281,552
110,1455472034.98219513893127441406,544
111,1455472035.03296446800231933594,496
112,1455472035.08299660682678222656,504
113,1455472035.13238120079040527344,504
114,1455472035.18252491950988769531,512
115,1455472035.23278069496154785156,520
116,1455472035.28279352188110351562,528
117,1455472035.33199667930603027344,528
118,1455472035.38242053985595703125,536
119,1455472035.43289256095886230469,544
120,1455472035.48306751251220703125,544
121,1455472035.532291412353515625,552
122,1455472035.58233237266540527344,560
123,1455472035.63249731063842773438,560
124,1455472035.68251132965087890625,568
125,1455472035.73292708396911621094,576
126,1455472035.78299307823181152344,576
127,1455472035.83300447463989257812,584
128,1455472035.88204026222229003906,584
129,1455472035.93296647071838378906,592
130,1455472035.98293042182922363281,592
131,1455472036.03280091285705566406,592
132,1455472036.083217620849609375,600
133,1455472036.1323184967041015625,600
134,1455472036.18269681930541992188,600
135,1455472036.23292660713195800781,608
136,1455472036.28227376937866210938,608
137,1455472036.33256959915161132812,608
138,1455472036.38282680511474609375,608
139,1455472036.43248677253723144531,608
140,1455472036.48282718658447265625,608
141,1455472036.53269529342651367188,608
142,1455472036.58211016654968261719,608
143,1455472036.63255047798156738281,608
144,1455472036.682514190673828125,608
145,1455472036.73204874992370605469,608
146,1455472036.78238463401794433594,608
147,1455472036.83258581161499023438,608
148,1455472036.88260293006896972656,608
149,1455472036.93269109725952148438,608
150,1455472036.98284816741943359375,600
151,1455472037.03252625465393066406,600
152,1455472037.0825023651123046875,600
153,1455472037.13220477104187011719,592
154,1455472037.18299174308776855469,592
155,1455472037.23221158981323242188,584
156,1455472037.28275895118713378906,584
157,1455472037.33284330368041992188,576
158,1455472037.3822994232177734375,576
159,1455472037.43306279182434082031,568
160,1455472037.4822998046875,568
161,1455472037.53323650360107421875,560
162,1455472037.58296990394592285156,552
163,1455472037.6324977874755859375,552
164,1455472037.68293404579162597656,544
165,1455472037.73263454437255859375,536
166,1455472037.7827434539794921875,536
167,1455472037.8332462310791015625,528
168,1455472037.88296079635620117188,520
169,1455472037.93214535713195800781,520
170,1455472037.98274397850036621094,512
171,1455472038.03264617919921875,504
172,1455472038.08221864700317382812,496
173,1455472038.13229393959045410156,496
174,1455472038.18329668045043945312,488
175,1455472038.23306584358215332031,480
176,1455472038.28219437599182128906,472
177,1455472038.33248472213745117188,472
178,1455472038.38247585296630859375,464
179,1455472038.43235874176025390625,456
180,1455472038.482147216796875,448
181,1455472038.53285765647888183594,448
182,1455472038.58266425132751464844,440
183,1455472038.69316005706787109375,432
184,1455472038.69677829742431640625,432
185,1455472038.73276948928833007812,424
186,1455472038.78297328948974609375,424
187,1455472038.83206844329833984375,416
188,1455472038.88288116455078125,408
189,1455472038.93307471275329589844,408
190,1455472038.9822750091552734375,400
191,1455472039.03231215476989746094,400
192,1455472039.08238983154296875,392
193,1455472039.13406300544738769531,392
194,1455472039.18214011192321777344,392
195,1455472039.23249721527099609375,384
196,1455472039.28199172019958496094,384
197,1455472039.33232045173645019531,384
198,1455472039.38205051422119140625,376
199,1455472039.43240118026733398438,376
200,1455472039.484588623046875,376
201,1455472039.534885406494140625,376
202,1455472039.58229351043701171875,376
203,1455472039.63253712654113769531,376
204,1455472039.68283343315124511719,376
205,1455472039.73291945457458496094,376
206,1455472039.78282713890075683594,376
207,1455472039.83199787139892578125,376
208,1455472039.88228821754455566406,376
209,1455472039.93279886245727539062,376
210,1455472039.98274946212768554688,376
211,1455472040.03246736526489257812,376
212,1455472040.08233141899108886719,384
213,1455472040.13244771957397460938,384
214,1455472040.182952880859375,384
215,1455472040.23258328437805175781,384
216,1455472040.28304624557495117188,392
217,1455472040.33307433128356933594,392
218,1455472040.38289785385131835938,400
219,1455472040.43222880363464355469,400
220,1455472040.48284173011779785156,408
221,1455472040.5330905914306640625,408
222,1455472040.58235573768615722656,416
223,1455472040.63293194770812988281,416
224,1455472040.68364548683166503906,424
225,1455472040.73400259017944335938,432
226,1455472040.78266739845275878906,432
227,1455472040.83255505561828613281,440
228,1455472040.88202977180480957031,448
229,1455472040.93251824378967285156,448
230,1455472040.98250436782836914062,456
231,1455472041.03256773948669433594,464
232,1455472041.08387112617492675781,472
233,1455472041.13266754150390625,472
234,1455472041.18276810646057128906,480
235,1455472041.23222565650939941406,488
236,1455472041.28267335891723632812,488
237,1455472041.33307743072509765625,496
238,1455472041.382373809814453125,504
239,1455472041.43322277069091796875,512
240,1455472041.4824771881103515625,512
241,1455472041.53356409072875976562,520
242,1455472041.58215379714965820312,528
243,1455472041.63242650032043457031,536
244,1455472041.68312668800354003906,536
245,1455472041.73217868804931640625,544
246,1455472041.78237271308898925781,552
247,1455472041.83294343948364257812,552
248,1455472041.88399910926818847656,560
249,1455472041.93319249153137207031,568
250,1455472041.9819850921630859375,568
251,1455472042.0322093963623046875,576
252,1455472042.0822429656982421875,576
253,1455472042.13246250152587890625,584
254,1455472042.18212985992431640625,584
255,1455472042.23254299163818359375,592
256,1455472042.28408336639404296875,592
257,1455472042.33321905136108398438,600
258,1455472042.382480621337890625,600
259,1455472042.43246006965637207031,600
260,1455472042.4821758270263671875,600
261,1455472042.5319805145263671875,608
262,1455472042.58249330520629882812,608
263,1455472042.63282680511474609375,608
264,1455472042.68293261528015136719,608
265,1455472042.73384165763854980469,608
266,1455472042.7824230194091796875,608
267,1455472042.832225799560546875,608
268,1455472042.8826999664306640625,608
269,1455472042.93286633491516113281,608
270,1455472042.98298311233520507812,608
271,1455472043.032718658447265625,608
272,1455472043.08459591865539550781,608
273,1455472043.13370084762573242188,608
274,1455472043.18240857124328613281,608
275,1455472043.23239111900329589844,600
276,1455472043.28281044960021972656,600
277,1455472043.33206343650817871094,600
278,1455472043.38278031349182128906,592
279,1455472043.43238139152526855469,592
280,1455472043.48446536064147949219,592
281,1455472043.53371119499206542969,584
282,1455472043.58233308792114257812,584
283,1455472043.63396787643432617188,576
284,1455472043.6827106475830078125,576
285,1455472043.73198246955871582031,568
286,1455472043.78270721435546875,560
287,1455472043.8329830169677734375,560
288,1455472043.8823528289794921875,552
289,1455472043.93294858932495117188,552
290,1455472043.98227024078369140625,544
291,1455472044.03228449821472167969,496
292,1455472044.08206653594970703125,504
293,1455472044.13224053382873535156,504
294,1455472044.18256282806396484375,512
295,1455472044.23248505592346191406,520
296,1455472044.28346586227416992188,528
297,1455472044.33325958251953125,528
298,1455472044.38265538215637207031,536
299,1455472044.43308019638061523438,544
300,1455472044.48244881629943847656,544
301,1455472044.53224229812622070312,552
302,1455472044.58228707313537597656,560
303,1455472044.63301587104797363281,560
304,1455472044.68312001228332519531,568
305,1455472044.73235201835632324219,576
306,1455472044.78205823898315429688,576
307,1455472044.83238101005554199219,584
308,1455472044.88237357139587402344,584
309,1455472044.93223261833190917969,592
310,1455472044.98257136344909667969,592
311,1455472045.03307962417602539062,592
312,1455472045.08228826522827148438,600
313,1455472045.13370871543884277344,600
314,1455472045.18313765525817871094,600
315,1455472045.23260450363159179688,608
316,1455472045.28287482261657714844,608
317,1455472045.33217501640319824219,608
318,1455472045.38223123550415039062,608
319,1455472045.43279743194580078125,608
320,1455472045.48276424407958984375,608
321,1455472045.53322243690490722656,608
322,1455472045.58353519439697265625,608
323,1455472045.63259243965148925781,608
324,1455472045.68280363082885742188,608
325,1455472045.73265171051025390625,608
326,1455472045.78197002410888671875,608
327,1455472045.83230257034301757812,608
328,1455472045.88240933418273925781,608
329,1455472045.93206501007080078125,608
330,1455472045.98227095603942871094,600
331,1455472046.03267908096313476562,600
332,1455472046.08281850814819335938,600
333,1455472046.13199782371520996094,592
334,1455472046.1820087432861328125,592
335,1455472046.23340177536010742188,584
336,1455472046.28223085403442382812,584
337,1455472046.33193993568420410156,576
338,1455472046.38228273391723632812,576
339,1455472046.43244600296020507812,568
340,1455472046.48256206512451171875,568
341,1455472046.53274416923522949219,560
342,1455472046.58261251449584960938,552
343,1455472046.63292694091796875,552
344,1455472046.68355345726013183594,544
345,1455472046.73228907585144042969,536
346,1455472046.78248429298400878906,536
347,1455472046.83222031593322753906,528
348,1455472046.8828372955322265625,520
349,1455472046.93185329437255859375,520
350,1455472046.98227453231811523438,512
351,1455472047.03267645835876464844,504
352,1455472047.08317112922668457031,496
353,1455472047.13254618644714355469,496
354,1455472047.18259358406066894531,488
355,1455472047.23284816741943359375,480
356,1455472047.282421112060546875,472
357,1455472047.3325634002685546875,472
358,1455472047.3824443817138671875,464
359,1455472047.43258619308471679688,456
360,1455472047.48447060585021972656,448
361,1455472047.53206968307495117188,448
362,1455472047.58219861984252929688,440
363,1455472047.63359212875366210938,432
364,1455472047.68295717239379882812,432
365,1455472047.73246312141418457031,424
366,1455472047.78201889991760253906,424
367,1455472047.83231687545776367188,416
368,1455472047.88415408134460449219,408
369,1455472047.93298196792602539062,408
370,1455472047.98231983184814453125,400
371,1455472048.03304839134216308594,400
372,1455472048.08286499977111816406,392
373,1455472048.13294529914855957031,392
374,1455472048.1823520660400390625,392
375,1455472048.23295235633850097656,384
376,1455472048.28193068504333496094,384
377,1455472048.33284330368041992188,384
378,1455472048.382781982421875,376
379,1455472048.43208932876586914062,376
380,1455472048.48235654830932617188,376
381,1455472048.53231883049011230469,376
382,1455472048.58288216590881347656,376
383,1455472048.63232111930847167969,376
384,1455472048.68453884124755859375,376
385,1455472048.73307561874389648438,376
386,1455472048.78255939483642578125,376
387,1455472048.83323955535888671875,376
388,1455472048.88261675834655761719,376
389,1455472048.93285107612609863281,376
390,1455472048.98299336433410644531,376
391,1455472049.03251576423645019531,376
392,1455472049.083309173583984375,384
393,1455472049.13299417495727539062,384
394,1455472049.18215036392211914062,384
395,1455472049.23245191574096679688,384
396,1455472049.28254866600036621094,392
397,1455472049.33264660835266113281,392
398,1455472049.3830814361572265625,400
399,1455472049.43241286277770996094,400
400,1455472049.48414921760559082031,408
401,1455472049.53251361846923828125,408
402,1455472049.58248376846313476562,416
403,1455472049.63282179832458496094,416
404,1455472049.68278622627258300781,424
405,1455472049.73304772377014160156,432
406,1455472049.78275704383850097656,432
407,1455472049.83324503898620605469,440
408,1455472049.88352608680725097656,448
409,1455472049.93373441696166992188,448
410,1455472049.98232555389404296875,456
411,1455472050.03251051902770996094,464
412,1455472050.0830593109130859375,472
413,1455472050.13225841522216796875,472
414,1455472050.18268489837646484375,480
415,1455472050.23238682746887207031,488
416,1455472050.28349828720092773438,496
417,1455472050.33271741867065429688,496
418,1455472050.38259720802307128906,504
419,1455472050.43302297592163085938,512
420,1455472050.48297548294067382812,512
421,1455472050.53251242637634277344,520
422,1455472050.58294177055358886719,528
423,1455472050.63209223747253417969,536
424,1455472050.68381166458129882812,536
425,1455472050.7328433990478515625,544
426,1455472050.78196740150451660156,552
427,1455472050.83232736587524414062,552
428,1455472050.88291573524475097656,560
429,1455472050.93200755119323730469,568
430,1455472050.98233628273010253906,568
431,1455472051.03272128105163574219,576
432,1455472051.08214306831359863281,576
433,1455472051.13326573371887207031,584
434,1455472051.18266439437866210938,584
435,1455472051.23237490653991699219,592
436,1455472051.28267192840576171875,592
437,1455472051.33278441429138183594,600
438,1455472051.3818645477294921875,600
439,1455472051.43236279487609863281,600
440,1455472051.48462009429931640625,600
441,1455472051.53321909904479980469,608
442,1455472051.58281731605529785156,608
443,1455472051.63308858871459960938,608
444,1455472051.68239188194274902344,608
445,1455472051.73243761062622070312,608
446,1455472051.78214669227600097656,608
447,1455472051.83288407325744628906,608
448,1455472051.88305449485778808594,608
449,1455472051.93374705314636230469,608
450,1455472051.98283338546752929688,608
451,1455472052.03293848037719726562,608
452,1455472052.08222746849060058594,608
453,1455472052.13256287574768066406,608
454,1455472052.18235707283020019531,608
455,1455472052.23262715339660644531,600
456,1455472052.28226256370544433594,600
457,1455472052.33328032493591308594,600
458,1455472052.38281226158142089844,592
459,1455472052.43228006362915039062,592
460,1455472052.48219704627990722656,592
461,1455472052.53225350379943847656,584
462,1455472052.58243584632873535156,584
463,1455472052.63284277915954589844,576
464,1455472052.68391656875610351562,576
465,1455472052.73304033279418945312,568
466,1455472052.78257203102111816406,560
467,1455472052.83291697502136230469,560
468,1455472052.8822650909423828125,552
469,1455472052.93223166465759277344,552
470,1455472052.98278450965881347656,544
471,1455472053.03282451629638671875,496
472,1455472053.08386993408203125,504
473,1455472053.13236188888549804688,504
474,1455472053.18267011642456054688,512
475,1455472053.23302102088928222656,520
476,1455472053.28227829933166503906,528
477,1455472053.33225727081298828125,528
478,1455472053.38271450996398925781,536
479,1455472053.43309140205383300781,544
480,1455472053.48223042488098144531,544
481,1455472053.53324580192565917969,552
482,1455472053.58266472816467285156,560
483,1455472053.63253664970397949219,560
484,1455472053.68296027183532714844,568
485,1455472053.73459482192993164062,576
486,1455472053.78260397911071777344,576
487,1455472053.83227014541625976562,584
488,1455472053.88254094123840332031,584
489,1455472053.93308901786804199219,592
490,1455472053.98225140571594238281,592
491,1455472054.03299164772033691406,592
492,1455472054.08236527442932128906,600
493,1455472054.13276600837707519531,600
494,1455472054.183048248291015625,600
495,1455472054.23243761062622070312,608
496,1455472054.28451633453369140625,608
497,1455472054.33216333389282226562,608
498,1455472054.38220310211181640625,608
499,1455472054.43269467353820800781,608
500,1455472054.48281025886535644531,608
501,1455472054.53271198272705078125,608
502,1455472054.58240413665771484375,608
503,1455472054.63275909423828125,608
504,1455472054.68199014663696289062,608
