id, time (s), size (bits)
0,1455472037.98663568496704101562,512
1,1455472038.04709315299987792969,504
2,1455472038.10732817649841308594,496
3,1455472038.1665554046630859375,488
4,1455472038.22791385650634765625,480
5,1455472038.28724718093872070312,472
6,1455472038.34661221504211425781,464
7,1455472038.40753579139709472656,464
8,1455472038.46668410301208496094,456
9,1455472038.52802276611328125,448
10,1455472038.58740067481994628906,440
11,1455472038.64697480201721191406,432
12,1455472038.70734715461730957031,424
13,1455472038.7665615081787109375,424
14,1455472038.82772350311279296875,416
15,1455472038.88739466667175292969,408
16,1455472038.94709515571594238281,408
17,1455472039.00723934173583984375,400
18,1455472039.06684422492980957031,400
19,1455472039.12821698188781738281,392
20,1455472039.18710017204284667969,392
21,1455472039.24698352813720703125,384
22,1455472039.30682086944580078125,384
23,1455472039.36707830429077148438,376
24,1455472039.42772006988525390625,376
25,1455472039.48833632469177246094,376
26,1455472039.54855847358703613281,376
27,1455472039.6066875457763671875,376
28,1455472039.66739034652709960938,376
29,1455472039.7281970977783203125,376
30,1455472039.78681826591491699219,376
31,1455472039.84741735458374023438,376
32,1455472039.90717005729675292969,376
33,1455472039.96683669090270996094,376
34,1455472040.02759838104248046875,376
35,1455472040.087406158447265625,384
36,1455472040.14670586585998535156,384
37,1455472040.20708775520324707031,384
38,1455472040.26725029945373535156,392
39,1455472040.32760095596313476562,392
40,1455472040.3869342803955078125,400
41,1455472040.44694852828979492188,400
42,1455472040.50632953643798828125,408
43,1455472040.56674098968505859375,416
44,1455472040.62795495986938476562,416
45,1455472040.68738865852355957031,424
46,1455472040.74714016914367675781,432
47,1455472040.806728363037109375,440
48,1455472040.86706590652465820312,440
49,1455472040.92765069007873535156,448
50,1455472040.98718166351318359375,456
51,1455472041.04713702201843261719,464
52,1455472041.10638642311096191406,472
53,1455472041.16665339469909667969,480
54,1455472041.22787785530090332031,488
55,1455472041.28703713417053222656,496
56,1455472041.34695076942443847656,496
57,1455472041.4064998626708984375,504
58,1455472041.46661877632141113281,512
59,1455472041.52774977684020996094,520
60,1455472041.58711719512939453125,528
61,1455472041.64636087417602539062,536
62,1455472041.70715761184692382812,544
63,1455472041.76754879951477050781,544
64,1455472041.82771086692810058594,552
65,1455472041.886951446533203125,560
66,1455472041.94734644889831542969,568
67,1455472042.00714993476867675781,568
68,1455472042.06631755828857421875,576
69,1455472042.12775087356567382812,584
70,1455472042.18715953826904296875,584
71,1455472042.24744081497192382812,592
72,1455472042.30677032470703125,592
73,1455472042.36656951904296875,600
74,1455472042.42779207229614257812,600
75,1455472042.48660588264465332031,600
76,1455472042.54722905158996582031,608
77,1455472042.606723785400390625,608
78,1455472042.66679716110229492188,608
79,1455472042.72811627388000488281,608
80,1455472042.78747391700744628906,608
81,1455472042.84632039070129394531,608
82,1455472042.906585693359375,608
83,1455472042.96677064895629882812,608
84,1455472043.02789092063903808594,608
85,1455472043.08726978302001953125,608
86,1455472043.14692783355712890625,608
87,1455472043.20706486701965332031,608
88,1455472043.26730179786682128906,600
89,1455472043.32707643508911132812,600
90,1455472043.38752293586730957031,592
91,1455472043.44671034812927246094,592
92,1455472043.50668168067932128906,584
93,1455472043.56683492660522460938,584
94,1455472043.62755823135375976562,576
95,1455472043.68683147430419921875,576
96,1455472043.7468547821044921875,568
97,1455472043.80670213699340820312,560
98,1455472043.86705279350280761719,552
99,1455472043.92727208137512207031,552
100,1455472043.98840856552124023438,544
101,1455472044.0472965240478515625,496
102,1455472044.1063556671142578125,504
103,1455472044.166545867919921875,512
104,1455472044.22771048545837402344,520
105,1455472044.28676152229309082031,528
106,1455472044.34701132774353027344,536
107,1455472044.40753459930419921875,536
108,1455472044.46730399131774902344,544
109,1455472044.52739381790161132812,552
110,1455472044.58656620979309082031,560
111,1455472044.64673256874084472656,568
112,1455472044.70640277862548828125,568
113,1455472044.7672672271728515625,576
114,1455472044.82792067527770996094,584
115,1455472044.8874492645263671875,584
116,1455472044.94732165336608886719,592
117,1455472045.00701832771301269531,592
118,1455472045.06733107566833496094,600
119,1455472045.12810921669006347656,600
120,1455472045.18712639808654785156,600
121,1455472045.24713945388793945312,608
122,1455472045.30731105804443359375,608
123,1455472045.36734986305236816406,608
124,1455472045.42788600921630859375,608
125,1455472045.48679375648498535156,608
126,1455472045.54689860343933105469,608
127,1455472045.60700941085815429688,608
128,1455472045.66689658164978027344,608
129,1455472045.72734332084655761719,608
130,1455472045.78700184822082519531,608
131,1455472045.84674787521362304688,608
132,1455472045.90715074539184570312,608
133,1455472045.96689128875732421875,600
134,1455472046.02834105491638183594,600
135,1455472046.086719512939453125,600
136,1455472046.14683628082275390625,592
137,1455472046.20696091651916503906,592
138,1455472046.2670116424560546875,584
139,1455472046.32752299308776855469,576
140,1455472046.38691639900207519531,576
141,1455472046.44721460342407226562,568
142,1455472046.50642466545104980469,560
143,1455472046.56700682640075683594,560
144,1455472046.62767577171325683594,552
145,1455472046.68733263015747070312,544
146,1455472046.74740314483642578125,536
147,1455472046.80902218818664550781,528
148,1455472046.8669643402099609375,528
149,1455472046.92767810821533203125,520
150,1455472046.98706936836242675781,512
151,1455472047.04681730270385742188,504
152,1455472047.10741066932678222656,496
153,1455472047.16679096221923828125,488
154,1455472047.22790503501892089844,480
155,1455472047.28709697723388671875,472
156,1455472047.34717416763305664062,464
157,1455472047.40666437149047851562,464
158,1455472047.46646761894226074219,456
159,1455472047.52922868728637695312,448
160,1455472047.58685588836669921875,440
161,1455472047.64687824249267578125,432
162,1455472047.70643568038940429688,424
163,1455472047.7673015594482421875,424
164,1455472047.82722234725952148438,416
165,1455472047.8863887786865234375,408
166,1455472047.94720697402954101562,408
167,1455472048.00792336463928222656,400
168,1455472048.0671749114990234375,400
169,1455472048.12748956680297851562,392
170,1455472048.18636035919189453125,392
171,1455472048.24734401702880859375,384
172,1455472048.30740451812744140625,384
173,1455472048.36674189567565917969,376
174,1455472048.42784976959228515625,376
175,1455472048.48696827888488769531,376
176,1455472048.5467243194580078125,376
177,1455472048.60697770118713378906,376
178,1455472048.66680622100830078125,376
179,1455472048.7275371551513671875,376
180,1455472048.78679943084716796875,376
181,1455472048.84699702262878417969,376
182,1455472048.90689349174499511719,376
183,1455472048.96730136871337890625,376
184,1455472049.02759265899658203125,376
185,1455472049.08696031570434570312,384
186,1455472049.14725279808044433594,384
187,1455472049.206836700439453125,384
188,1455472049.26708674430847167969,392
189,1455472049.32740497589111328125,392
190,1455472049.38632559776306152344,400
191,1455472049.44752907752990722656,400
192,1455472049.5072307586669921875,408
193,1455472049.566493988037109375,416
194,1455472049.62783646583557128906,416
195,1455472049.68753194808959960938,424
196,1455472049.74728918075561523438,432
197,1455472049.80697751045227050781,440
198,1455472049.86721730232238769531,440
199,1455472049.92817640304565429688,448
200,1455472049.98739957809448242188,456
201,1455472050.04680109024047851562,464
202,1455472050.10680174827575683594,472
203,1455472050.16706609725952148438,480
204,1455472050.22733163833618164062,488
205,1455472050.287113189697265625,496
206,1455472050.3466949462890625,496
207,1455472050.40693974494934082031,504
208,1455472050.4672527313232421875,512
209,1455472050.5278644561767578125,520
210,1455472050.58700871467590332031,528
211,1455472050.64673972129821777344,536
212,1455472050.70659351348876953125,544
213,1455472050.76730632781982421875,544
214,1455472050.82753872871398925781,552
215,1455472050.8868255615234375,560
216,1455472050.94715857505798339844,568
217,1455472051.00636267662048339844,568
218,1455472051.06716203689575195312,576
219,1455472051.12750673294067382812,584
220,1455472051.1876983642578125,584
221,1455472051.24734759330749511719,592
222,1455472051.30701136589050292969,592
223,1455472051.367214202880859375,600
224,1455472051.42749476432800292969,600
225,1455472051.48715186119079589844,608
226,1455472051.5464954376220703125,608
227,1455472051.60743045806884765625,608
228,1455472051.6666088104248046875,608
229,1455472051.72747898101806640625,608
230,1455472051.78736782073974609375,608
231,1455472051.84758782386779785156,608
232,1455472051.90740132331848144531,608
233,1455472051.96680569648742675781,608
234,1455472052.02769970893859863281,608
235,1455472052.08649897575378417969,608
236,1455472052.14694094657897949219,608
237,1455472052.20736980438232421875,608
238,1455472052.26637864112854003906,600
239,1455472052.32774639129638671875,600
240,1455472052.38811779022216796875,592
241,1455472052.44644594192504882812,592
242,1455472052.50726795196533203125,584
243,1455472052.56747770309448242188,584
244,1455472052.62777495384216308594,576
245,1455472052.68715429306030273438,576
246,1455472052.7462902069091796875,568
247,1455472052.80698037147521972656,560
248,1455472052.86644816398620605469,552
249,1455472052.92773032188415527344,552
250,1455472052.98700857162475585938,544
251,1455472053.04709744453430175781,496
252,1455472053.10728216171264648438,504
253,1455472053.16628670692443847656,512
254,1455472053.22704482078552246094,520
255,1455472053.28698706626892089844,528
256,1455472053.3470935821533203125,536
257,1455472053.40656900405883789062,536
258,1455472053.46728420257568359375,544
259,1455472053.52764058113098144531,552
260,1455472053.58670568466186523438,560
261,1455472053.64701437950134277344,568
262,1455472053.70670413970947265625,568
263,1455472053.76742982864379882812,576
264,1455472053.82731151580810546875,584
265,1455472053.88693881034851074219,584
266,1455472053.94727230072021484375,592
267,1455472054.00782918930053710938,592
268,1455472054.06661462783813476562,600
269,1455472054.12812376022338867188,600
270,1455472054.18695974349975585938,600
271,1455472054.24709105491638183594,608
272,1455472054.30680155754089355469,608
273,1455472054.36710977554321289062,608
274,1455472054.42802858352661132812,608
275,1455472054.48735547065734863281,608
276,1455472054.54699850082397460938,608
277,1455472054.60638952255249023438,608
278,1455472054.66720104217529296875,608
279,1455472054.72815680503845214844,608
280,1455472054.786823272705078125,608
281,1455472054.84676599502563476562,608
282,1455472054.90828561782836914062,608
283,1455472054.96720385551452636719,600
284,1455472055.02784228324890136719,600
285,1455472055.08682656288146972656,600
286,1455472055.14732265472412109375,592
287,1455472055.20718336105346679688,592
288,1455472055.26687741279602050781,584
289,1455472055.32797408103942871094,576
290,1455472055.38700366020202636719,576
291,1455472055.44752550125122070312,568
292,1455472055.50739741325378417969,560
293,1455472055.56678032875061035156,560
294,1455472055.62893962860107421875,552
295,1455472055.68723511695861816406,544
296,1455472055.74645686149597167969,536
297,1455472055.80680632591247558594,528
298,1455472055.86648416519165039062,528
299,1455472055.92754912376403808594,520
300,1455472055.986988067626953125,512
301,1455472056.04694581031799316406,504
302,1455472056.10708856582641601562,496
303,1455472056.16750359535217285156,488
304,1455472056.2272586822509765625,480
305,1455472056.28667855262756347656,472
306,1455472056.34672069549560546875,464
307,1455472056.40707230567932128906,464
308,1455472056.46667408943176269531,456
309,1455472056.52804255485534667969,448
310,1455472056.58735585212707519531,440
311,1455472056.64736080169677734375,432
312,1455472056.70635008811950683594,424
313,1455472056.76718640327453613281,424
314,1455472056.82774233818054199219,416
315,1455472056.88691973686218261719,408
316,1455472056.94677424430847167969,408
317,1455472057.00684261322021484375,400
318,1455472057.06633114814758300781,400
319,1455472057.1277904510498046875,392
320,1455472057.187274932861328125,392
321,1455472057.24644970893859863281,384
322,1455472057.30734848976135253906,384
323,1455472057.36754655838012695312,376
324,1455472057.42795777320861816406,376
325,1455472057.48730540275573730469,376
326,1455472057.54696989059448242188,376
327,1455472057.60684680938720703125,376
328,1455472057.66682744026184082031,376
329,1455472057.72716093063354492188,376
330,1455472057.78701758384704589844,376
331,1455472057.84675455093383789062,376
332,1455472057.90642452239990234375,376
333,1455472057.96686959266662597656,376
334,1455472058.02769255638122558594,376
335,1455472058.08727335929870605469,384
336,1455472058.147014617919921875,384
337,1455472058.20672106742858886719,384
338,1455472058.26728105545043945312,392
339,1455472058.32802057266235351562,392
340,1455472058.38738727569580078125,400
341,1455472058.44637703895568847656,400
342,1455472058.50724458694458007812,408
343,1455472058.56744146347045898438,416
344,1455472058.62791943550109863281,416
345,1455472058.6868953704833984375,424
346,1455472058.74725818634033203125,432
347,1455472058.80718135833740234375,440
348,1455472058.86658525466918945312,440
349,1455472058.92809391021728515625,448
350,1455472058.98633456230163574219,456
351,1455472059.04714989662170410156,464
352,1455472059.10743427276611328125,472
353,1455472059.16678357124328613281,480
354,1455472059.22792649269104003906,488
355,1455472059.28690290451049804688,496
356,1455472059.34709525108337402344,496
357,1455472059.40740227699279785156,504
358,1455472059.467067718505859375,512
359,1455472059.52783346176147460938,520
360,1455472059.58700060844421386719,528
361,1455472059.64713621139526367188,536
362,1455472059.70696306228637695312,544
363,1455472059.76741623878479003906,544
364,1455472059.827091217041015625,552
365,1455472059.88658165931701660156,560
366,1455472059.94721508026123046875,568
367,1455472060.00755524635314941406,568
368,1455472060.06736326217651367188,576
369,1455472060.12730884552001953125,584
370,1455472060.18708539009094238281,584
371,1455472060.2473087310791015625,592
372,1455472060.30729842185974121094,592
373,1455472060.36730885505676269531,600
374,1455472060.42787671089172363281,600
375,1455472060.48738336563110351562,608
376,1455472060.54738211631774902344,608
377,1455472060.60724163055419921875,608
378,1455472060.66725850105285644531,608
379,1455472060.72763323783874511719,608
380,1455472060.78644967079162597656,608
381,1455472060.84665274620056152344,608
382,1455472060.90709733963012695312,608
383,1455472060.96704030036926269531,608
384,1455472061.02791142463684082031,608
385,1455472061.08698725700378417969,608
386,1455472061.14696407318115234375,608
387,1455472061.20755934715270996094,608
388,1455472061.26694631576538085938,600
389,1455472061.32807707786560058594,600
390,1455472061.38718414306640625,592
391,1455472061.44730687141418457031,592
392,1455472061.50632143020629882812,584
393,1455472061.56667232513427734375,584
394,1455472061.62735676765441894531,576
395,1455472061.68703532218933105469,576
396,1455472061.74713611602783203125,568
397,1455472061.80671763420104980469,560
398,1455472061.86734175682067871094,552
399,1455472061.92774605751037597656,552
400,1455472061.98826551437377929688,544
401,1455472062.04722380638122558594,496
402,1455472062.10696649551391601562,504
403,1455472062.16752552986145019531,512
404,1455472062.22787332534790039062,520
405,1455472062.28749179840087890625,528
406,1455472062.34671926498413085938,536
407,1455472062.40749406814575195312,536
408,1455472062.46672105789184570312,544
409,1455472062.52783274650573730469,552
410,1455472062.58723783493041992188,560
411,1455472062.64727282524108886719,568
412,1455472062.70728063583374023438,568
413,1455472062.76676201820373535156,576
414,1455472062.82787179946899414062,584
415,1455472062.88741993904113769531,584
416,1455472062.94730472564697265625,592
417,1455472063.00686335563659667969,592
418,1455472063.06725072860717773438,600
419,1455472063.12727689743041992188,600
420,1455472063.18661093711853027344,600
421,1455472063.24655437469482421875,608
422,1455472063.3072967529296875,608
423,1455472063.36706948280334472656,608
424,1455472063.42715358734130859375,608
425,1455472063.48701548576354980469,608
426,1455472063.54722905158996582031,608
427,1455472063.60760760307312011719,608
428,1455472063.6672916412353515625,608
429,1455472063.7281627655029296875,608
430,1455472063.78671169281005859375,608
431,1455472063.84671783447265625,608
432,1455472063.9073848724365234375,608
433,1455472063.96814465522766113281,600
434,1455472064.02726435661315917969,600
435,1455472064.08739542961120605469,600
436,1455472064.14764952659606933594,592
437,1455472064.20674920082092285156,592
438,1455472064.26639103889465332031,584
439,1455472064.32828497886657714844,576
440,1455472064.38695955276489257812,576
441,1455472064.44703197479248046875,568
442,1455472064.50755286216735839844,560
443,1455472064.56689691543579101562,560
444,1455472064.62748169898986816406,552
445,1455472064.68715071678161621094,544
446,1455472064.74671459197998046875,536
447,1455472064.80868220329284667969,528
448,1455472064.86860871315002441406,528
449,1455472064.92733669281005859375,520
450,1455472064.98731827735900878906,512
451,1455472065.04716587066650390625,504
452,1455472065.1068134307861328125,496
453,1455472065.16726255416870117188,488
454,1455472065.22789406776428222656,480
455,1455472065.28726792335510253906,472
456,1455472065.34721207618713378906,464
457,1455472065.40662026405334472656,464
458,1455472065.46745896339416503906,456
459,1455472065.52899599075317382812,448
460,1455472065.58729481697082519531,440
461,1455472065.64719533920288085938,432
462,1455472065.70696210861206054688,424
463,1455472065.76680850982666015625,424
464,1455472065.82803201675415039062,416
465,1455472065.886470794677734375,408
466,1455472065.94742584228515625,408
467,1455472066.00750279426574707031,400
468,1455472066.0670070648193359375,400
469,1455472066.12787270545959472656,392
470,1455472066.18687462806701660156,392
471,1455472066.2469806671142578125,384
472,1455472066.30646729469299316406,384
473,1455472066.36680817604064941406,376
474,1455472066.42754483222961425781,376
475,1455472066.48669695854187011719,376
476,1455472066.54634213447570800781,376
477,1455472066.60702180862426757812,376
478,1455472066.6666278839111328125,376
479,1455472066.72769212722778320312,376
480,1455472066.78691649436950683594,376
481,1455472066.84737062454223632812,376
482,1455472066.90710616111755371094,376
483,1455472066.96745467185974121094,376
484,1455472067.02775502204895019531,376
485,1455472067.08671116828918457031,384
486,1455472067.1472492218017578125,384
487,1455472067.20701718330383300781,384
488,1455472067.26631927490234375,392
489,1455472067.32792639732360839844,392
490,1455472067.38688778877258300781,400
491,1455472067.44730877876281738281,400
492,1455472067.50735068321228027344,408
493,1455472067.56731772422790527344,416
494,1455472067.62792825698852539062,416
495,1455472067.68647050857543945312,424
496,1455472067.74679517745971679688,432
497,1455472067.80643224716186523438,440
498,1455472067.86678791046142578125,440
499,1455472067.927337646484375,448
500,1455472067.98679280281066894531,456
501,1455472068.04663920402526855469,464
502,1455472068.10723447799682617188,472
503,1455472068.16777777671813964844,480
504,1455472068.22805762290954589844,488
