id, time (s), size (bits)
0,1455472038.66787481307983398438,432
1,1455472038.72770357131958007812,424
2,1455472038.78832173347473144531,416
3,1455472038.84765577316284179688,416
4,1455472038.911312103271484375,408
5,1455472038.96758055686950683594,400
6,1455472039.02831745147705078125,400
7,1455472039.08801221847534179688,392
8,1455472039.14779973030090332031,392
9,1455472039.20955181121826171875,384
10,1455472039.26762032508850097656,384
11,1455472039.32799410820007324219,384
12,1455472039.38770055770874023438,376
13,1455472039.44748210906982421875,376
14,1455472039.50834989547729492188,376
15,1455472039.56850409507751464844,376
16,1455472039.62813162803649902344,376
17,1455472039.68810343742370605469,376
18,1455472039.74722743034362792969,376
19,1455472039.80885839462280273438,376
20,1455472039.86736917495727539062,376
21,1455472039.92799472808837890625,376
22,1455472039.9872112274169921875,376
23,1455472040.04747605323791503906,376
24,1455472040.110218048095703125,384
25,1455472040.16718292236328125,384
26,1455472040.22761631011962890625,384
27,1455472040.28747630119323730469,392
28,1455472040.34784913063049316406,392
29,1455472040.40838336944580078125,400
30,1455472040.46839213371276855469,408
31,1455472040.52734041213989257812,408
32,1455472040.5880527496337890625,416
33,1455472040.64745640754699707031,424
34,1455472040.70874810218811035156,424
35,1455472040.76769471168518066406,432
36,1455472040.82797694206237792969,440
37,1455472040.88779234886169433594,448
38,1455472040.94713640213012695312,456
39,1455472041.00910711288452148438,456
40,1455472041.06802773475646972656,464
41,1455472041.12752270698547363281,472
42,1455472041.18928265571594238281,480
43,1455472041.2480983734130859375,488
44,1455472041.30857157707214355469,496
45,1455472041.36749982833862304688,504
46,1455472041.4277667999267578125,512
47,1455472041.48828482627868652344,520
48,1455472041.54846072196960449219,520
49,1455472041.61013889312744140625,528
50,1455472041.66753292083740234375,536
51,1455472041.72799253463745117188,544
52,1455472041.78722500801086425781,552
53,1455472041.84730076789855957031,560
54,1455472041.90827274322509765625,560
55,1455472041.96758818626403808594,568
56,1455472042.02739739418029785156,576
57,1455472042.08806777000427246094,576
58,1455472042.14807891845703125,584
59,1455472042.20865201950073242188,584
60,1455472042.26804041862487792969,592
61,1455472042.32820200920104980469,592
62,1455472042.38789272308349609375,600
63,1455472042.44736742973327636719,600
64,1455472042.50826478004455566406,608
65,1455472042.56803822517395019531,608
66,1455472042.62763237953186035156,608
67,1455472042.68756079673767089844,608
68,1455472042.74771952629089355469,608
69,1455472042.81077146530151367188,608
70,1455472042.86822748184204101562,608
71,1455472042.92798900604248046875,608
72,1455472042.988231658935546875,608
73,1455472043.04794859886169433594,608
74,1455472043.10810422897338867188,608
75,1455472043.16791510581970214844,608
76,1455472043.22805523872375488281,600
77,1455472043.28847074508666992188,600
78,1455472043.34727931022644042969,600
79,1455472043.40838217735290527344,592
80,1455472043.46823763847351074219,592
81,1455472043.52738022804260253906,584
82,1455472043.58749294281005859375,584
83,1455472043.64759469032287597656,576
84,1455472043.71075367927551269531,568
85,1455472043.76725268363952636719,568
86,1455472043.82811784744262695312,560
87,1455472043.88796663284301757812,552
88,1455472043.94737195968627929688,544
89,1455472044.01043772697448730469,496
90,1455472044.06738972663879394531,504
91,1455472044.12825989723205566406,504
92,1455472044.18798184394836425781,512
93,1455472044.24717593193054199219,520
94,1455472044.30863904953002929688,528
95,1455472044.36745238304138183594,536
96,1455472044.42784476280212402344,544
97,1455472044.48828840255737304688,552
98,1455472044.54763031005859375,552
99,1455472044.60872125625610351562,560
100,1455472044.66811513900756835938,568
101,1455472044.72808837890625,568
102,1455472044.78803777694702148438,576
103,1455472044.84824657440185546875,584
104,1455472044.90840506553649902344,584
105,1455472044.96812748908996582031,592
106,1455472045.0272083282470703125,592
107,1455472045.087512969970703125,600
108,1455472045.14793252944946289062,600
109,1455472045.20878672599792480469,608
110,1455472045.26824045181274414062,608
111,1455472045.3292694091796875,608
112,1455472045.38803911209106445312,608
113,1455472045.44804215431213378906,608
114,1455472045.50870656967163085938,608
115,1455472045.56829166412353515625,608
116,1455472045.62922954559326171875,608
117,1455472045.68765807151794433594,608
118,1455472045.74745774269104003906,608
119,1455472045.80862092971801757812,608
120,1455472045.86815977096557617188,608
121,1455472045.92813229560852050781,608
122,1455472045.98774838447570800781,600
123,1455472046.0484161376953125,600
124,1455472046.10833215713500976562,592
125,1455472046.17399883270263671875,592
126,1455472046.22802090644836425781,584
127,1455472046.28966951370239257812,584
128,1455472046.34788346290588378906,576
129,1455472046.40816974639892578125,576
130,1455472046.46864795684814453125,568
131,1455472046.52753877639770507812,560
132,1455472046.58746671676635742188,552
133,1455472046.64782404899597167969,552
134,1455472046.70795321464538574219,544
135,1455472046.76797080039978027344,536
136,1455472046.82729887962341308594,528
137,1455472046.88792467117309570312,520
138,1455472046.94793581962585449219,512
139,1455472047.00934314727783203125,504
140,1455472047.06726551055908203125,504
141,1455472047.12742924690246582031,496
142,1455472047.1886749267578125,488
143,1455472047.24787306785583496094,480
144,1455472047.30795574188232421875,472
145,1455472047.36797595024108886719,464
146,1455472047.42791414260864257812,456
147,1455472047.48772501945495605469,448
148,1455472047.54783177375793457031,448
149,1455472047.60883641242980957031,440
150,1455472047.6681537628173828125,432
151,1455472047.72783303260803222656,424
152,1455472047.78751206398010253906,416
153,1455472047.84794402122497558594,416
154,1455472047.90874218940734863281,408
155,1455472047.9683055877685546875,400
156,1455472048.02833628654479980469,400
157,1455472048.08797025680541992188,392
158,1455472048.14824533462524414062,392
159,1455472048.2086772918701171875,384
160,1455472048.26824331283569335938,384
161,1455472048.32777714729309082031,384
162,1455472048.38712239265441894531,376
163,1455472048.44761204719543457031,376
164,1455472048.50851321220397949219,376
165,1455472048.5680389404296875,376
166,1455472048.62824273109436035156,376
167,1455472048.68830466270446777344,376
168,1455472048.74769997596740722656,376
169,1455472048.808956146240234375,376
170,1455472048.86921739578247070312,376
171,1455472048.92813801765441894531,376
172,1455472048.9876708984375,376
173,1455472049.04821538925170898438,376
174,1455472049.10921549797058105469,384
175,1455472049.16832947731018066406,384
176,1455472049.22743988037109375,384
177,1455472049.28715085983276367188,392
178,1455472049.34793639183044433594,392
179,1455472049.40848755836486816406,400
180,1455472049.46775889396667480469,408
181,1455472049.52833104133605957031,408
182,1455472049.58844661712646484375,416
183,1455472049.64840054512023925781,424
184,1455472049.70829248428344726562,424
185,1455472049.76762413978576660156,432
186,1455472049.82773590087890625,440
187,1455472049.888408660888671875,448
188,1455472049.94824743270874023438,456
189,1455472050.0118541717529296875,456
190,1455472050.06800341606140136719,464
191,1455472050.12844347953796386719,472
192,1455472050.18779826164245605469,480
193,1455472050.24794673919677734375,488
194,1455472050.30896043777465820312,496
195,1455472050.36815309524536132812,504
196,1455472050.42774486541748046875,512
197,1455472050.48816967010498046875,520
198,1455472050.54810476303100585938,520
199,1455472050.61072230339050292969,528
200,1455472050.668209075927734375,536
201,1455472050.72827100753784179688,544
202,1455472050.78839278221130371094,552
203,1455472050.84807372093200683594,560
204,1455472050.90870404243469238281,560
205,1455472050.96792078018188476562,568
206,1455472051.02799773216247558594,576
207,1455472051.08836007118225097656,576
208,1455472051.14828467369079589844,584
209,1455472051.21041655540466308594,584
210,1455472051.26804780960083007812,592
211,1455472051.32813119888305664062,592
212,1455472051.387516021728515625,600
213,1455472051.44805479049682617188,600
214,1455472051.50854825973510742188,608
215,1455472051.56750440597534179688,608
216,1455472051.62764430046081542969,608
217,1455472051.6880340576171875,608
218,1455472051.7478961944580078125,608
219,1455472051.80846285820007324219,608
220,1455472051.86768817901611328125,608
221,1455472051.92759108543395996094,608
222,1455472051.98766541481018066406,608
223,1455472052.04812884330749511719,608
224,1455472052.10850191116333007812,608
225,1455472052.16725850105285644531,608
226,1455472052.22761130332946777344,600
227,1455472052.28841829299926757812,600
228,1455472052.34784293174743652344,600
229,1455472052.40810036659240722656,592
230,1455472052.46810317039489746094,592
231,1455472052.52808547019958496094,584
232,1455472052.58789038658142089844,584
233,1455472052.64739918708801269531,576
234,1455472052.70905971527099609375,568
235,1455472052.76849150657653808594,568
236,1455472052.82770013809204101562,560
237,1455472052.88822078704833984375,552
238,1455472052.94810509681701660156,544
239,1455472053.01027059555053710938,496
240,1455472053.06724333763122558594,504
241,1455472053.12773275375366210938,504
242,1455472053.18769407272338867188,512
243,1455472053.24810457229614257812,520
244,1455472053.30844163894653320312,528
245,1455472053.36815762519836425781,536
246,1455472053.42719364166259765625,544
247,1455472053.48814725875854492188,552
248,1455472053.54824090003967285156,552
249,1455472053.60902881622314453125,560
250,1455472053.66804838180541992188,568
251,1455472053.72845983505249023438,568
252,1455472053.7883148193359375,576
253,1455472053.84825634956359863281,584
254,1455472053.90840268135070800781,584
255,1455472053.96758818626403808594,592
256,1455472054.02795839309692382812,592
257,1455472054.08834767341613769531,600
258,1455472054.14764666557312011719,600
259,1455472054.20888519287109375,608
260,1455472054.26925420761108398438,608
261,1455472054.32726001739501953125,608
262,1455472054.38751435279846191406,608
263,1455472054.44767284393310546875,608
264,1455472054.50893497467041015625,608
265,1455472054.56795954704284667969,608
266,1455472054.62799811363220214844,608
267,1455472054.68746685981750488281,608
268,1455472054.74987196922302246094,608
269,1455472054.80990576744079589844,608
270,1455472054.86763644218444824219,608
271,1455472054.92802023887634277344,608
272,1455472054.98802876472473144531,600
273,1455472055.04797482490539550781,600
274,1455472055.10868692398071289062,592
275,1455472055.16795969009399414062,592
276,1455472055.22793126106262207031,584
277,1455472055.28742480278015136719,584
278,1455472055.34749507904052734375,576
279,1455472055.40889596939086914062,576
280,1455472055.46814942359924316406,568
281,1455472055.52789044380187988281,560
282,1455472055.58948755264282226562,552
283,1455472055.64829778671264648438,552
284,1455472055.70832753181457519531,544
285,1455472055.76747775077819824219,536
286,1455472055.82799243927001953125,528
287,1455472055.88797879219055175781,520
288,1455472055.94818329811096191406,512
289,1455472056.00937223434448242188,504
290,1455472056.06765794754028320312,504
291,1455472056.12764430046081542969,496
292,1455472056.18778443336486816406,488
293,1455472056.24790596961975097656,480
294,1455472056.30827808380126953125,472
295,1455472056.36841130256652832031,464
296,1455472056.42753458023071289062,456
297,1455472056.48743104934692382812,448
298,1455472056.54767656326293945312,448
299,1455472056.60984063148498535156,440
300,1455472056.66800379753112792969,432
301,1455472056.72763299942016601562,424
302,1455472056.78905010223388671875,416
303,1455472056.84820675849914550781,416
304,1455472056.90806484222412109375,408
305,1455472056.97014713287353515625,400
306,1455472057.02780652046203613281,400
307,1455472057.08758425712585449219,392
308,1455472057.14762353897094726562,392
309,1455472057.20900774002075195312,384
310,1455472057.2675724029541015625,384
311,1455472057.32832455635070800781,384
312,1455472057.38843011856079101562,376
313,1455472057.44757485389709472656,376
314,1455472057.5086917877197265625,376
315,1455472057.56853508949279785156,376
316,1455472057.62745141983032226562,376
317,1455472057.68743634223937988281,376
318,1455472057.74757599830627441406,376
319,1455472057.80876135826110839844,376
320,1455472057.86720108985900878906,376
321,1455472057.92836713790893554688,376
322,1455472057.98959589004516601562,376
323,1455472058.04815959930419921875,376
324,1455472058.10870862007141113281,384
325,1455472058.16727209091186523438,384
326,1455472058.22765469551086425781,384
327,1455472058.28832721710205078125,392
328,1455472058.34775996208190917969,392
329,1455472058.40812849998474121094,400
330,1455472058.46828365325927734375,408
331,1455472058.5276470184326171875,408
332,1455472058.58730602264404296875,416
333,1455472058.64739704132080078125,424
334,1455472058.70900297164916992188,424
335,1455472058.76789236068725585938,432
336,1455472058.82773065567016601562,440
337,1455472058.88727712631225585938,448
338,1455472058.94758296012878417969,456
339,1455472059.00845360755920410156,456
340,1455472059.067188262939453125,464
341,1455472059.12759828567504882812,472
342,1455472059.18849325180053710938,480
343,1455472059.24765181541442871094,488
344,1455472059.31030225753784179688,496
345,1455472059.36790156364440917969,504
346,1455472059.42803072929382324219,512
347,1455472059.4880809783935546875,520
348,1455472059.54824471473693847656,520
349,1455472059.61029720306396484375,528
350,1455472059.66805148124694824219,536
351,1455472059.72822499275207519531,544
352,1455472059.78799223899841308594,552
353,1455472059.84820890426635742188,560
354,1455472059.90981316566467285156,560
355,1455472059.96748995780944824219,568
356,1455472060.02767419815063476562,576
357,1455472060.087932586669921875,576
358,1455472060.14740920066833496094,584
359,1455472060.20892214775085449219,584
360,1455472060.26810884475708007812,592
361,1455472060.32794499397277832031,592
362,1455472060.38742613792419433594,600
363,1455472060.44789218902587890625,600
364,1455472060.50900793075561523438,608
365,1455472060.56758785247802734375,608
366,1455472060.62768220901489257812,608
367,1455472060.68819069862365722656,608
368,1455472060.74777770042419433594,608
369,1455472060.80900454521179199219,608
370,1455472060.86791181564331054688,608
371,1455472060.92790174484252929688,608
372,1455472060.98808979988098144531,608
373,1455472061.04750418663024902344,608
374,1455472061.10897731781005859375,608
375,1455472061.16809153556823730469,608
376,1455472061.22815465927124023438,600
377,1455472061.28783583641052246094,600
378,1455472061.34804773330688476562,600
379,1455472061.40857553482055664062,592
380,1455472061.4677486419677734375,592
381,1455472061.52787804603576660156,584
382,1455472061.58813691139221191406,584
383,1455472061.648406982421875,576
384,1455472061.70895862579345703125,568
385,1455472061.76793432235717773438,568
386,1455472061.82773113250732421875,560
387,1455472061.88842272758483886719,552
388,1455472061.94755196571350097656,544
389,1455472062.00899577140808105469,496
390,1455472062.06824469566345214844,504
391,1455472062.12756204605102539062,504
392,1455472062.18868756294250488281,512
393,1455472062.24799585342407226562,520
394,1455472062.30867671966552734375,528
395,1455472062.36791968345642089844,536
396,1455472062.42753911018371582031,544
397,1455472062.48804163932800292969,552
398,1455472062.54783964157104492188,552
399,1455472062.61007356643676757812,560
400,1455472062.668224334716796875,568
401,1455472062.72795367240905761719,568
402,1455472062.78816676139831542969,576
403,1455472062.84796500205993652344,584
404,1455472062.90862989425659179688,584
405,1455472062.96764230728149414062,592
406,1455472063.02825069427490234375,592
407,1455472063.08758258819580078125,600
408,1455472063.1476993560791015625,600
409,1455472063.20854282379150390625,608
410,1455472063.26915335655212402344,608
411,1455472063.32940411567687988281,608
412,1455472063.39021897315979003906,608
413,1455472063.44747519493103027344,608
414,1455472063.50889158248901367188,608
415,1455472063.56891775131225585938,608
416,1455472063.62805986404418945312,608
417,1455472063.68754315376281738281,608
418,1455472063.74753165245056152344,608
419,1455472063.80970478057861328125,608
420,1455472063.86813402175903320312,608
421,1455472063.9278583526611328125,608
422,1455472063.98816442489624023438,600
423,1455472064.04815387725830078125,600
424,1455472064.10959458351135253906,592
425,1455472064.16780185699462890625,592
426,1455472064.22822856903076171875,584
427,1455472064.28833746910095214844,584
428,1455472064.34750890731811523438,576
429,1455472064.40894603729248046875,576
430,1455472064.46797966957092285156,568
431,1455472064.52777624130249023438,560
432,1455472064.5896320343017578125,552
433,1455472064.64827108383178710938,552
434,1455472064.70800805091857910156,544
435,1455472064.76768612861633300781,536
436,1455472064.82830286026000976562,528
437,1455472064.88823986053466796875,520
438,1455472064.94845438003540039062,512
439,1455472065.00917720794677734375,504
440,1455472065.07017350196838378906,504
441,1455472065.12833142280578613281,496
442,1455472065.18825936317443847656,488
443,1455472065.24788641929626464844,480
444,1455472065.30886745452880859375,472
445,1455472065.3674564361572265625,464
446,1455472065.4273166656494140625,456
447,1455472065.48758935928344726562,448
448,1455472065.54769277572631835938,448
449,1455472065.60911107063293457031,440
450,1455472065.66749596595764160156,432
451,1455472065.72832560539245605469,424
452,1455472065.78797650337219238281,416
453,1455472065.84792113304138183594,416
454,1455472065.90925002098083496094,408
455,1455472065.96805429458618164062,400
456,1455472066.02814984321594238281,400
457,1455472066.08739829063415527344,392
458,1455472066.14806079864501953125,392
459,1455472066.20882749557495117188,384
460,1455472066.26797270774841308594,384
461,1455472066.32827281951904296875,384
462,1455472066.38886666297912597656,376
463,1455472066.44810843467712402344,376
464,1455472066.50910830497741699219,376
465,1455472066.56792950630187988281,376
466,1455472066.62820148468017578125,376
467,1455472066.68761658668518066406,376
468,1455472066.74792528152465820312,376
469,1455472066.80848670005798339844,376
470,1455472066.86880850791931152344,376
471,1455472066.92770266532897949219,376
472,1455472066.9883441925048828125,376
473,1455472067.04756331443786621094,376
474,1455472067.10806798934936523438,384
475,1455472067.16765093803405761719,384
476,1455472067.2273006439208984375,384
477,1455472067.28792238235473632812,392
478,1455472067.34754538536071777344,392
479,1455472067.40861606597900390625,400
480,1455472067.46737360954284667969,408
481,1455472067.52715754508972167969,408
482,1455472067.58816218376159667969,416
483,1455472067.64785408973693847656,424
484,1455472067.71020841598510742188,424
485,1455472067.76763010025024414062,432
486,1455472067.82756090164184570312,440
487,1455472067.88790988922119140625,448
488,1455472067.94790220260620117188,456
489,1455472068.00912547111511230469,456
490,1455472068.06721639633178710938,464
491,1455472068.12752532958984375,472
492,1455472068.187938690185546875,480
493,1455472068.24784064292907714844,488
494,1455472068.30857515335083007812,496
495,1455472068.3679409027099609375,504
496,1455472068.42807102203369140625,512
497,1455472068.48758268356323242188,520
498,1455472068.54761838912963867188,520
499,1455472068.60922598838806152344,528
500,1455472068.66767168045043945312,536
501,1455472068.72789525985717773438,544
502,1455472068.78858065605163574219,552
503,1455472068.84817934036254882812,560
