id, time (s), size (bits)
0,1455472029.84815049171447753906,1455472029.84909772872924804688,448
1,1455472029.93012452125549316406,1455472029.9305896759033203125,448
2,1455472030.081066131591796875,1455472030.08165287971496582031,440
3,1455472030.15514683723449707031,1455472030.15591669082641601562,432
4,1455472030.19962263107299804688,1455472030.20008730888366699219,432
5,1455472030.24081492424011230469,1455472030.24135231971740722656,424
6,1455472030.26444244384765625,1455472030.2649669647216796875,424
7,1455472030.31306385993957519531,1455472030.31362175941467285156,416
8,1455472030.36516070365905761719,1455472030.36562323570251464844,408
9,1455472030.41359829902648925781,1455472030.41422414779663085938,408
10,1455472030.46520233154296875,1455472030.46566414833068847656,400
11,1455472030.51365137100219726562,1455472030.51428151130676269531,400
12,1455472030.56485080718994140625,1455472030.56531071662902832031,392
13,1455472030.61340093612670898438,1455472030.61386513710021972656,392
14,1455472030.66423010826110839844,1455472030.66470789909362792969,392
15,1455472030.71476125717163085938,1455472030.71523237228393554688,384
16,1455472030.76333403587341308594,1455472030.76381182670593261719,384
17,1455472030.81341505050659179688,1455472030.81396889686584472656,384
18,1455472030.86564946174621582031,1455472030.86633419990539550781,376
19,1455472030.91360259056091308594,1455472030.91445016860961914062,376
20,1455472030.96403837203979492188,1455472030.96463847160339355469,376
21,1455472031.014308929443359375,1455472031.01489019393920898438,376
22,1455472031.06432938575744628906,1455472031.06496500968933105469,376
23,1455472031.11398386955261230469,1455472031.1145572662353515625,376
24,1455472031.16451787948608398438,1455472031.16514158248901367188,376
25,1455472031.21382761001586914062,1455472031.21438932418823242188,376
26,1455472031.26526665687561035156,1455472031.2657413482666015625,376
27,1455472031.313701629638671875,1455472031.31432390213012695312,376
28,1455472031.36293792724609375,1455472031.36339592933654785156,376
29,1455472031.41468119621276855469,1455472031.41542673110961914062,376
30,1455472031.46489214897155761719,1455472031.46538257598876953125,376
31,1455472031.51339960098266601562,1455472031.51387000083923339844,376
32,1455472031.56367635726928710938,1455472031.56415462493896484375,384
33,1455472031.61393308639526367188,1455472031.61447501182556152344,384
34,1455472031.66318964958190917969,1455472031.66369295120239257812,384
35,1455472031.71325731277465820312,1455472031.71374392509460449219,384
36,1455472031.76528573036193847656,1455472031.76591014862060546875,392
37,1455472031.8137989044189453125,1455472031.81427669525146484375,392
38,1455472031.86304712295532226562,1455472031.86371612548828125,400
39,1455472031.91339921951293945312,1455472031.91387057304382324219,400
40,1455472031.96343469619750976562,1455472031.96395373344421386719,408
41,1455472032.01417827606201171875,1455472032.01476025581359863281,408
42,1455472032.06567025184631347656,1455472032.06614756584167480469,416
43,1455472032.1153507232666015625,1455472032.11585545539855957031,416
44,1455472032.16333699226379394531,1455472032.16380429267883300781,424
45,1455472032.21363687515258789062,1455472032.21434140205383300781,432
46,1455472032.26316881179809570312,1455472032.26363778114318847656,432
47,1455472032.31383156776428222656,1455472032.31452322006225585938,440
48,1455472032.36504602432250976562,1455472032.36551523208618164062,448
49,1455472032.41367220878601074219,1455472032.41413760185241699219,448
50,1455472032.46595835685729980469,1455472032.46643733978271484375,456
51,1455472032.51412343978881835938,1455472032.51459550857543945312,464
52,1455472032.56314873695373535156,1455472032.56370139122009277344,472
53,1455472032.61361813545227050781,1455472032.61409449577331542969,472
54,1455472032.66460943222045898438,1455472032.66536307334899902344,480
55,1455472032.71414971351623535156,1455472032.71462297439575195312,488
56,1455472032.7638149261474609375,1455472032.76441836357116699219,488
57,1455472032.81428456306457519531,1455472032.814762115478515625,496
58,1455472032.86452937126159667969,1455472032.86499190330505371094,504
59,1455472032.91411805152893066406,1455472032.9146175384521484375,512
60,1455472032.9649028778076171875,1455472032.96537137031555175781,512
61,1455472033.01381707191467285156,1455472033.01431131362915039062,520
62,1455472033.06309223175048828125,1455472033.06362318992614746094,528
63,1455472033.11329698562622070312,1455472033.11401844024658203125,536
64,1455472033.1646976470947265625,1455472033.16522765159606933594,536
65,1455472033.21386551856994628906,1455472033.21454977989196777344,544
66,1455472033.26581549644470214844,1455472033.26628088951110839844,552
67,1455472033.3132419586181640625,1455472033.31377458572387695312,552
68,1455472033.36317110061645507812,1455472033.36364102363586425781,560
69,1455472033.41415119171142578125,1455472033.41461539268493652344,568
70,1455472033.46371221542358398438,1455472033.46429014205932617188,568
71,1455472033.515148162841796875,1455472033.51563429832458496094,576
72,1455472033.56434988975524902344,1455472033.56502890586853027344,576
73,1455472033.61403250694274902344,1455472033.61456179618835449219,584
74,1455472033.66299867630004882812,1455472033.66321253776550292969,584
75,1455472033.71420526504516601562,1455472033.71467852592468261719,592
76,1455472033.76310944557189941406,1455472033.76357626914978027344,592
77,1455472033.81317830085754394531,1455472033.8137264251708984375,600
78,1455472033.86528182029724121094,1455472033.86575150489807128906,600
79,1455472033.91395592689514160156,1455472033.91445803642272949219,600
80,1455472033.96385121345520019531,1455472033.96438694000244140625,600
81,1455472034.01345920562744140625,1455472034.01409029960632324219,608
82,1455472034.06493997573852539062,1455472034.06539750099182128906,608
83,1455472034.11310672760009765625,1455472034.11372399330139160156,608
84,1455472034.16467189788818359375,1455472034.16520404815673828125,608
85,1455472034.21538209915161132812,1455472034.2158946990966796875,608
86,1455472034.263957977294921875,1455472034.26442646980285644531,608
87,1455472034.31311011314392089844,1455472034.313632965087890625,608
88,1455472034.36328864097595214844,1455472034.36378502845764160156,608
89,1455472034.41340470314025878906,1455472034.41387057304382324219,608
90,1455472034.46528863906860351562,1455472034.46596384048461914062,608
91,1455472034.51361131668090820312,1455472034.51406979560852050781,608
92,1455472034.56432294845581054688,1455472034.56491708755493164062,608
93,1455472034.61340928077697753906,1455472034.61387467384338378906,608
94,1455472034.66352796554565429688,1455472034.66399168968200683594,608
95,1455472034.71334528923034667969,1455472034.71384143829345703125,600
96,1455472034.76404881477355957031,1455472034.76451039314270019531,600
97,1455472034.81427812576293945312,1455472034.81479239463806152344,600
98,1455472034.86307692527770996094,1455472034.86353921890258789062,592
99,1455472034.91537117958068847656,1455472034.9160251617431640625,592
100,1455472034.96358132362365722656,1455472034.96412491798400878906,592
101,1455472035.0138950347900390625,1455472035.01452684402465820312,584
102,1455472035.06484484672546386719,1455472035.06532454490661621094,584
103,1455472035.1131191253662109375,1455472035.11369085311889648438,576
104,1455472035.16397905349731445312,1455472035.16445159912109375,576
105,1455472035.21336197853088378906,1455472035.21397686004638671875,568
106,1455472035.2659702301025390625,1455472035.26646208763122558594,560
107,1455472035.31440281867980957031,1455472035.3149051666259765625,560
108,1455472035.3641262054443359375,1455472035.36482167243957519531,552
109,1455472035.41365718841552734375,1455472035.414154052734375,552
110,1455472035.46380591392517089844,1455472035.46448159217834472656,544
111,1455472035.51388573646545410156,1455472035.5143489837646484375,496
112,1455472035.56307435035705566406,1455472035.56359004974365234375,504
113,1455472035.61470127105712890625,1455472035.61528873443603515625,504
114,1455472035.66568446159362792969,1455472035.66614222526550292969,512
115,1455472035.71439313888549804688,1455472035.71489834785461425781,520
116,1455472035.76346325874328613281,1455472035.76393151283264160156,528
117,1455472035.81364178657531738281,1455472035.81429457664489746094,528
118,1455472035.8636531829833984375,1455472035.86412262916564941406,536
119,1455472035.91369271278381347656,1455472035.91432023048400878906,544
120,1455472035.96573090553283691406,1455472035.96628022193908691406,544
121,1455472036.014385223388671875,1455472036.01495313644409179688,552
122,1455472036.06530404090881347656,1455472036.0658721923828125,560
123,1455472036.11372828483581542969,1455472036.11419081687927246094,560
124,1455472036.16409969329833984375,1455472036.16458892822265625,568
125,1455472036.21410083770751953125,1455472036.21456670761108398438,576
126,1455472036.26456403732299804688,1455472036.26526165008544921875,576
127,1455472036.3152923583984375,1455472036.31586194038391113281,584
128,1455472036.36333966255187988281,1455472036.36399555206298828125,584
129,1455472036.41391730308532714844,1455472036.41439175605773925781,592
130,1455472036.46497559547424316406,1455472036.46543264389038085938,592
131,1455472036.51355218887329101562,1455472036.51404261589050292969,592
132,1455472036.56443119049072265625,1455472036.56488800048828125,600
133,1455472036.61401820182800292969,1455472036.6145839691162109375,600
134,1455472036.66463637351989746094,1455472036.66514754295349121094,600
135,1455472036.71395015716552734375,1455472036.71458029747009277344,608
136,1455472036.76374983787536621094,1455472036.76421332359313964844,608
137,1455472036.81328892707824707031,1455472036.81402826309204101562,608
138,1455472036.86542105674743652344,1455472036.865886688232421875,608
139,1455472036.91362309455871582031,1455472036.91416573524475097656,608
140,1455472036.96320629119873046875,1455472036.96366548538208007812,608
141,1455472037.01478648185729980469,1455472037.0153827667236328125,608
142,1455472037.06392669677734375,1455472037.06442046165466308594,608
143,1455472037.11369466781616210938,1455472037.11417508125305175781,608
144,1455472037.16457676887512207031,1455472037.165264129638671875,608
145,1455472037.21397900581359863281,1455472037.21444392204284667969,608
146,1455472037.26456308364868164062,1455472037.26529979705810546875,608
147,1455472037.31363725662231445312,1455472037.31411218643188476562,608
148,1455472037.36414003372192382812,1455472037.36468195915222167969,608
149,1455472037.41416788101196289062,1455472037.41463351249694824219,608
150,1455472037.46418404579162597656,1455472037.46470046043395996094,600
151,1455472037.51395273208618164062,1455472037.51446270942687988281,600
152,1455472037.56395673751831054688,1455472037.56440711021423339844,600
153,1455472037.61293840408325195312,1455472037.61363840103149414062,592
154,1455472037.66501617431640625,1455472037.66555738449096679688,592
155,1455472037.71516466140747070312,1455472037.71579837799072265625,584
156,1455472037.76519560813903808594,1455472037.76567435264587402344,584
157,1455472037.8865966796875,1455472037.88707184791564941406,576
158,1455472037.92103648185729980469,1455472037.92161655426025390625,576
159,1455472037.97508692741394042969,1455472037.97557830810546875,568
160,1455472038.06320047378540039062,1455472038.0637912750244140625,568
161,1455472038.08597350120544433594,1455472038.0875263214111328125,560
162,1455472038.08812952041625976562,1455472038.08877110481262207031,552
163,1455472038.12630200386047363281,1455472038.1267681121826171875,536
164,1455472038.178863525390625,1455472038.17947983741760253906,528
165,1455472038.20785593986511230469,1455472038.20839667320251464844,528
166,1455472038.22528886795043945312,1455472038.22658538818359375,520
167,1455472038.61600065231323242188,1455472038.62081503868103027344,552
168,1455472038.62265777587890625,1455472038.62313151359558105469,512
169,1455472038.64332437515258789062,1455472038.64385914802551269531,512
170,1455472038.65835738182067871094,1455472038.66030740737915039062,512
171,1455472038.67189455032348632812,1455472038.67247486114501953125,504
172,1455472038.70987725257873535156,1455472038.71187114715576171875,544
173,1455472038.71959710121154785156,1455472038.72037148475646972656,536
174,1455472038.76069664955139160156,1455472038.76123952865600585938,536
175,1455472038.77132534980773925781,1455472038.77226614952087402344,528
176,1455472038.7858676910400390625,1455472038.78646993637084960938,520
177,1455472038.80787992477416992188,1455472038.81073260307312011719,520
178,1455472038.81266951560974121094,1455472038.81458067893981933594,512
179,1455472038.82110261917114257812,1455472038.82165217399597167969,504
180,1455472038.83540606498718261719,1455472038.83586025238037109375,496
181,1455472038.86139202117919921875,1455472038.86188626289367675781,496
182,1455472038.87037205696105957031,1455472038.87083172798156738281,488
183,1455472038.88574862480163574219,1455472038.88650822639465332031,480
184,1455472038.9085330963134765625,1455472038.90990400314331054688,472
185,1455472038.92115616798400878906,1455472038.92162847518920898438,472
186,1455472038.93501019477844238281,1455472038.93561434745788574219,464
187,1455472038.96232485771179199219,1455472038.9627933502197265625,496
188,1455472038.97115969657897949219,1455472038.97161364555358886719,488
189,1455472038.98585176467895507812,1455472038.98632097244262695312,488
190,1455472039.01277661323547363281,1455472039.01326465606689453125,480
191,1455472039.0208740234375,1455472039.02148604393005371094,472
192,1455472039.03802967071533203125,1455472039.03858709335327148438,464
193,1455472039.06133413314819335938,1455472039.06189751625061035156,464
194,1455472039.07118058204650878906,1455472039.07277679443359375,456
195,1455472039.07346940040588378906,1455472039.07395172119140625,504
196,1455472039.08634281158447265625,1455472039.08752846717834472656,496
197,1455472039.10865807533264160156,1455472039.1103649139404296875,496
198,1455472039.12049245834350585938,1455472039.12103104591369628906,488
199,1455472039.13732838630676269531,1455472039.13913559913635253906,456
200,1455472039.13980054855346679688,1455472039.14021635055541992188,448
201,1455472039.15969872474670410156,1455472039.1616363525390625,456
202,1455472039.1720256805419921875,1455472039.17247724533081054688,440
203,1455472039.18607425689697265625,1455472039.186656951904296875,448
204,1455472039.20704579353332519531,1455472039.2082347869873046875,440
205,1455472039.219974517822265625,1455472039.22048640251159667969,440
206,1455472039.23529934883117675781,1455472039.2358226776123046875,440
207,1455472039.24422216415405273438,1455472039.24470829963684082031,480
208,1455472039.25990891456604003906,1455472039.26183652877807617188,472
209,1455472039.26506495475769042969,1455472039.26554942131042480469,472
210,1455472039.27141451835632324219,1455472039.27188229560852050781,464
211,1455472039.28575682640075683594,1455472039.28644633293151855469,432
212,1455472039.30894184112548828125,1455472039.31134557723999023438,432
213,1455472039.31446051597595214844,1455472039.31504702568054199219,440
214,1455472039.31949925422668457031,1455472039.31996560096740722656,424
215,1455472039.33610892295837402344,1455472039.33659791946411132812,424
216,1455472039.36121296882629394531,1455472039.36168050765991210938,456
217,1455472039.365234375,1455472039.36568617820739746094,448
218,1455472039.37127470970153808594,1455472039.3717555999755859375,448
219,1455472039.3851604461669921875,1455472039.38567280769348144531,432
220,1455472039.4081172943115234375,1455472039.41075253486633300781,424
221,1455472039.41393899917602539062,1455472039.41438722610473632812,424
222,1455472039.42118191719055175781,1455472039.42191624641418457031,424
223,1455472039.43630552291870117188,1455472039.43683266639709472656,416
224,1455472039.4573955535888671875,1455472039.458400726318359375,440
225,1455472039.46470403671264648438,1455472039.46518540382385253906,416
226,1455472039.47152781486511230469,1455472039.47205686569213867188,424
227,1455472039.48803853988647460938,1455472039.48978257179260253906,416
228,1455472039.51209902763366699219,1455472039.5136432647705078125,416
229,1455472039.51423621177673339844,1455472039.51488256454467773438,416
230,1455472039.52086305618286132812,1455472039.52132868766784667969,432
231,1455472039.5366668701171875,1455472039.53733277320861816406,432
232,1455472039.56089901924133300781,1455472039.56146383285522460938,424
233,1455472039.56417918205261230469,1455472039.56464409828186035156,408
234,1455472039.57205533981323242188,1455472039.57394170761108398438,408
235,1455472039.58844661712646484375,1455472039.59014439582824707031,408
236,1455472039.60768556594848632812,1455472039.60867857933044433594,408
237,1455472039.61302208900451660156,1455472039.61350250244140625,400
238,1455472039.62153744697570800781,1455472039.62220788002014160156,424
239,1455472039.63626241683959960938,1455472039.63675594329833984375,416
240,1455472039.6622371673583984375,1455472039.66317915916442871094,408
241,1455472039.66469335556030273438,1455472039.66520357131958007812,400
242,1455472039.67075848579406738281,1455472039.67126536369323730469,400
243,1455472039.68578124046325683594,1455472039.68638753890991210938,408
244,1455472039.70966386795043945312,1455472039.71139001846313476562,400
245,1455472039.7158050537109375,1455472039.7163867950439453125,400
246,1455472039.72028589248657226562,1455472039.72072744369506835938,392
247,1455472039.73563218116760253906,1455472039.73634839057922363281,408
248,1455472039.76150774955749511719,1455472039.762027740478515625,400
249,1455472039.76608395576477050781,1455472039.76674222946166992188,400
250,1455472039.77061295509338378906,1455472039.771087646484375,400
251,1455472039.78670907020568847656,1455472039.78718090057373046875,392
252,1455472039.81324672698974609375,1455472039.81483936309814453125,392
253,1455472039.81543040275573730469,1455472039.81592392921447753906,392
254,1455472039.81995987892150878906,1455472039.8204669952392578125,392
255,1455472039.83533644676208496094,1455472039.83580946922302246094,392
256,1455472039.85759067535400390625,1455472039.85877537727355957031,392
257,1455472039.8643856048583984375,1455472039.86496067047119140625,392
258,1455472039.87187361717224121094,1455472039.87254595756530761719,392
259,1455472039.88555264472961425781,1455472039.8860950469970703125,384
260,1455472039.91063642501831054688,1455472039.91110277175903320312,384
261,1455472039.9139995574951171875,1455472039.91447424888610839844,392
262,1455472039.92035198211669921875,1455472039.92081046104431152344,392
263,1455472039.93815970420837402344,1455472039.93994665145874023438,384
264,1455472039.96061491966247558594,1455472039.96108245849609375,384
265,1455472039.96384763717651367188,1455472039.96463298797607421875,384
266,1455472039.9716167449951171875,1455472039.9721546173095703125,384
267,1455472039.98575448989868164062,1455472039.9863834381103515625,384
268,1455472040.01155161857604980469,1455472040.01353216171264648438,384
269,1455472040.01778507232666015625,1455472040.018283843994140625,384
270,1455472040.02866792678833007812,1455472040.02915668487548828125,384
271,1455472040.03549027442932128906,1455472040.03596544265747070312,376
272,1455472040.06160402297973632812,1455472040.06309986114501953125,376
273,1455472040.06376099586486816406,1455472040.06418013572692871094,384
274,1455472040.07031273841857910156,1455472040.07093000411987304688,384
275,1455472040.0853404998779296875,1455472040.08582735061645507812,376
276,1455472040.1114635467529296875,1455472040.1145782470703125,376
277,1455472040.11516833305358886719,1455472040.11559081077575683594,376
278,1455472040.11943507194519042969,1455472040.11988592147827148438,376
279,1455472040.13635206222534179688,1455472040.13683247566223144531,376
280,1455472040.16031479835510253906,1455472040.16223478317260742188,376
