id, time (s), size (bits)
0,1455472038.64046812057495117188,432
1,1455472038.70959711074829101562,424
2,1455472038.78023624420166015625,424
3,1455472038.84942460060119628906,416
4,1455472038.92058539390563964844,408
5,1455472038.99150943756103515625,400
6,1455472039.05947351455688476562,400
7,1455472039.13029146194458007812,392
8,1455472039.19938635826110839844,384
9,1455472039.27055191993713378906,384
10,1455472039.33951306343078613281,384
11,1455472039.41077756881713867188,376
12,1455472039.47968125343322753906,376
13,1455472039.54969716072082519531,376
14,1455472039.62100458145141601562,376
15,1455472039.6906261444091796875,376
16,1455472039.75943899154663085938,376
17,1455472039.8306064605712890625,376
18,1455472039.89964175224304199219,376
19,1455472039.970333099365234375,376
20,1455472040.04019689559936523438,376
21,1455472040.10981512069702148438,384
22,1455472040.17977070808410644531,384
23,1455472040.25095129013061523438,392
24,1455472040.32039499282836914062,392
25,1455472040.39000988006591796875,400
26,1455472040.4593658447265625,400
27,1455472040.52976369857788085938,408
28,1455472040.59942865371704101562,416
29,1455472040.67116475105285644531,424
30,1455472040.74037027359008789062,432
31,1455472040.810100555419921875,440
32,1455472040.88043332099914550781,448
33,1455472040.95039224624633789062,456
34,1455472041.02091479301452636719,464
35,1455472041.09086942672729492188,472
36,1455472041.16008830070495605469,480
37,1455472041.22961282730102539062,488
38,1455472041.30016827583312988281,496
39,1455472041.37094926834106445312,504
40,1455472041.44018602371215820312,512
41,1455472041.510654449462890625,520
42,1455472041.57991838455200195312,528
43,1455472041.65036869049072265625,536
44,1455472041.72046685218811035156,544
45,1455472041.79010009765625,552
46,1455472041.85940265655517578125,560
47,1455472041.930828094482421875,568
48,1455472041.99997353553771972656,568
49,1455472042.07210230827331542969,576
50,1455472042.14012598991394042969,584
51,1455472042.21024060249328613281,584
52,1455472042.27979898452758789062,592
53,1455472042.35113286972045898438,600
54,1455472042.42004489898681640625,600
55,1455472042.48978376388549804688,608
56,1455472042.55988073348999023438,608
57,1455472042.63017559051513671875,608
58,1455472042.7003574371337890625,608
59,1455472042.77142310142517089844,608
60,1455472042.84022784233093261719,608
61,1455472042.91024565696716308594,608
62,1455472042.9796085357666015625,608
63,1455472043.0498065948486328125,608
64,1455472043.12100815773010253906,608
65,1455472043.19055533409118652344,608
66,1455472043.26019215583801269531,600
67,1455472043.32944941520690917969,600
68,1455472043.39966297149658203125,592
69,1455472043.47011017799377441406,592
70,1455472043.54038500785827636719,584
71,1455472043.61163020133972167969,576
72,1455472043.68016767501831054688,576
73,1455472043.74936056137084960938,568
74,1455472043.82054185867309570312,560
75,1455472043.88976550102233886719,552
76,1455472043.9601116180419921875,544
77,1455472044.03074955940246582031,496
78,1455472044.10032701492309570312,504
79,1455472044.1701831817626953125,512
80,1455472044.23998379707336425781,520
81,1455472044.31038951873779296875,528
82,1455472044.37977910041809082031,536
83,1455472044.45050907135009765625,544
84,1455472044.52084875106811523438,552
85,1455472044.59032750129699707031,560
86,1455472044.65974497795104980469,568
87,1455472044.72969293594360351562,568
88,1455472044.79944705963134765625,576
89,1455472044.87192273139953613281,584
90,1455472044.9397640228271484375,592
91,1455472045.01003789901733398438,592
92,1455472045.0805187225341796875,600
93,1455472045.15011811256408691406,600
94,1455472045.2204647064208984375,608
95,1455472045.29109311103820800781,608
96,1455472045.35941934585571289062,608
97,1455472045.42960906028747558594,608
98,1455472045.50041961669921875,608
99,1455472045.57079935073852539062,608
100,1455472045.63990020751953125,608
101,1455472045.71100640296936035156,608
102,1455472045.78088593482971191406,608
103,1455472045.85062265396118164062,608
104,1455472045.92031216621398925781,608
105,1455472045.98983812332153320312,600
106,1455472046.05997896194458007812,600
107,1455472046.13116407394409179688,592
108,1455472046.199459075927734375,592
109,1455472046.27046561241149902344,584
110,1455472046.34017682075500488281,576
111,1455472046.40976810455322265625,576
112,1455472046.47966241836547851562,568
113,1455472046.55090832710266113281,560
114,1455472046.62192940711975097656,552
115,1455472046.69015860557556152344,544
116,1455472046.75963711738586425781,536
117,1455472046.82941412925720214844,528
118,1455472046.90007615089416503906,520
119,1455472046.97152614593505859375,512
120,1455472047.04015946388244628906,504
121,1455472047.11040210723876953125,496
122,1455472047.18047165870666503906,488
123,1455472047.25036478042602539062,480
124,1455472047.32021117210388183594,472
125,1455472047.3910369873046875,464
126,1455472047.46118497848510742188,456
127,1455472047.53065061569213867188,448
128,1455472047.60013580322265625,440
129,1455472047.67027807235717773438,432
130,1455472047.74231028556823730469,424
131,1455472047.81055092811584472656,416
132,1455472047.87973165512084960938,408
133,1455472047.94942069053649902344,408
134,1455472048.020603179931640625,400
135,1455472048.08961248397827148438,392
136,1455472048.15991735458374023438,392
137,1455472048.230884552001953125,384
138,1455472048.29998660087585449219,384
139,1455472048.37063145637512207031,376
140,1455472048.4397449493408203125,376
141,1455472048.51015877723693847656,376
142,1455472048.58012890815734863281,376
143,1455472048.65109539031982421875,376
144,1455472048.72093105316162109375,376
145,1455472048.790233612060546875,376
146,1455472048.86154508590698242188,376
147,1455472048.93004488945007324219,376
148,1455472048.99959468841552734375,376
149,1455472049.07190704345703125,376
150,1455472049.13996052742004394531,384
151,1455472049.21045804023742675781,384
152,1455472049.27976775169372558594,392
153,1455472049.34989285469055175781,392
154,1455472049.42031955718994140625,400
155,1455472049.49131059646606445312,408
156,1455472049.55979990959167480469,416
157,1455472049.63016939163208007812,416
158,1455472049.69958353042602539062,424
159,1455472049.77094268798828125,432
160,1455472049.83982300758361816406,440
161,1455472049.9112339019775390625,448
162,1455472049.98147726058959960938,456
163,1455472050.04974961280822753906,464
164,1455472050.12090063095092773438,472
165,1455472050.19028759002685546875,480
166,1455472050.26044130325317382812,488
167,1455472050.33106875419616699219,496
168,1455472050.40009999275207519531,504
169,1455472050.47043728828430175781,512
170,1455472050.54130721092224121094,520
171,1455472050.60975813865661621094,528
172,1455472050.67945384979248046875,536
173,1455472050.75099706649780273438,544
174,1455472050.821140289306640625,552
175,1455472050.89023852348327636719,560
176,1455472050.9604339599609375,568
177,1455472051.02956295013427734375,576
178,1455472051.09990859031677246094,576
179,1455472051.17092847824096679688,584
180,1455472051.24033856391906738281,592
181,1455472051.30940198898315429688,592
182,1455472051.38001513481140136719,600
183,1455472051.45006847381591796875,600
184,1455472051.52072739601135253906,608
185,1455472051.59060359001159667969,608
186,1455472051.66208529472351074219,608
187,1455472051.72967863082885742188,608
188,1455472051.80002379417419433594,608
189,1455472051.87120747566223144531,608
190,1455472051.94011831283569335938,608
191,1455472052.01142668724060058594,608
192,1455472052.07991266250610351562,608
193,1455472052.15032219886779785156,608
194,1455472052.22204303741455078125,600
195,1455472052.28970694541931152344,600
196,1455472052.35978817939758300781,600
197,1455472052.43054056167602539062,592
198,1455472052.50008893013000488281,584
199,1455472052.57110190391540527344,584
200,1455472052.64028859138488769531,576
201,1455472052.71002244949340820312,568
202,1455472052.78011679649353027344,568
203,1455472052.85113811492919921875,560
204,1455472052.92060899734497070312,552
205,1455472052.9899196624755859375,544
206,1455472053.05939626693725585938,496
207,1455472053.13024306297302246094,504
208,1455472053.19939732551574707031,512
209,1455472053.27176451683044433594,528
210,1455472053.33967709541320800781,528
211,1455472053.40993404388427734375,536
212,1455472053.48001599311828613281,544
213,1455472053.55223488807678222656,552
214,1455472053.62077999114990234375,560
215,1455472053.69072198867797851562,568
216,1455472053.76006674766540527344,576
217,1455472053.83122396469116210938,584
218,1455472053.89988732337951660156,584
219,1455472053.97098875045776367188,592
220,1455472054.0400447845458984375,592
221,1455472054.11113595962524414062,600
222,1455472054.17984843254089355469,600
223,1455472054.24999451637268066406,608
224,1455472054.32107377052307128906,608
225,1455472054.38979959487915039062,608
226,1455472054.46007275581359863281,608
227,1455472054.53098201751708984375,608
228,1455472054.6001434326171875,608
229,1455472054.67026376724243164062,608
230,1455472054.73996186256408691406,608
231,1455472054.81027126312255859375,608
232,1455472054.8801860809326171875,608
233,1455472054.95250153541564941406,600
234,1455472055.02072978019714355469,600
235,1455472055.08987188339233398438,600
236,1455472055.16024351119995117188,592
237,1455472055.23029327392578125,584
238,1455472055.30030369758605957031,584
239,1455472055.3718128204345703125,576
240,1455472055.44017314910888671875,568
241,1455472055.50995039939880371094,560
242,1455472055.58009195327758789062,552
243,1455472055.64999461174011230469,552
244,1455472055.72012019157409667969,544
245,1455472055.79091858863830566406,536
246,1455472055.8597545623779296875,528
247,1455472055.92970895767211914062,520
248,1455472056.00062203407287597656,512
249,1455472056.07139039039611816406,504
250,1455472056.14158558845520019531,496
251,1455472056.21133899688720703125,480
252,1455472056.27972102165222167969,472
253,1455472056.350433349609375,464
254,1455472056.420330047607421875,456
255,1455472056.49026656150817871094,448
256,1455472056.56015825271606445312,440
257,1455472056.63119626045227050781,432
258,1455472056.70038056373596191406,432
259,1455472056.7704563140869140625,424
260,1455472056.840328216552734375,416
261,1455472056.90947175025939941406,408
262,1455472056.97957849502563476562,400
263,1455472057.05083942413330078125,400
264,1455472057.1204376220703125,392
265,1455472057.19032883644104003906,384
266,1455472057.26008105278015136719,384
267,1455472057.33035707473754882812,384
268,1455472057.40035247802734375,376
269,1455472057.47188544273376464844,376
270,1455472057.54038071632385253906,376
271,1455472057.60961174964904785156,376
272,1455472057.67938494682312011719,376
273,1455472057.74954342842102050781,376
274,1455472057.82102417945861816406,376
275,1455472057.89097881317138671875,376
276,1455472057.96042776107788085938,376
277,1455472058.03043270111083984375,376
278,1455472058.09998440742492675781,384
279,1455472058.17102336883544921875,384
280,1455472058.23963379859924316406,392
281,1455472058.3112030029296875,392
282,1455472058.37991929054260253906,400
283,1455472058.45016598701477050781,400
284,1455472058.52040338516235351562,408
285,1455472058.589447021484375,416
286,1455472058.65956211090087890625,424
287,1455472058.73121976852416992188,432
288,1455472058.800262451171875,440
289,1455472058.870487213134765625,440
290,1455472058.94027304649353027344,448
291,1455472059.01078248023986816406,456
292,1455472059.08038115501403808594,464
293,1455472059.15115952491760253906,480
294,1455472059.2201137542724609375,488
295,1455472059.29023122787475585938,496
296,1455472059.35936260223388671875,504
297,1455472059.42980527877807617188,512
298,1455472059.49998402595520019531,520
299,1455472059.57190465927124023438,528
300,1455472059.63959050178527832031,536
301,1455472059.70982265472412109375,544
302,1455472059.7802333831787109375,552
303,1455472059.85034418106079101562,560
304,1455472059.92068910598754882812,560
305,1455472059.99160361289978027344,568
306,1455472060.05979800224304199219,576
307,1455472060.13032484054565429688,584
308,1455472060.19964861869812011719,584
309,1455472060.27049612998962402344,592
310,1455472060.3402118682861328125,600
311,1455472060.41135478019714355469,600
312,1455472060.4798526763916015625,600
313,1455472060.55008053779602050781,608
314,1455472060.62091231346130371094,608
315,1455472060.68961453437805175781,608
316,1455472060.76035642623901367188,608
317,1455472060.831378936767578125,608
318,1455472060.89980959892272949219,608
319,1455472060.97072458267211914062,608
320,1455472061.0397777557373046875,608
321,1455472061.11024332046508789062,608
322,1455472061.17970395088195800781,608
323,1455472061.25093531608581542969,600
324,1455472061.321075439453125,600
325,1455472061.39044952392578125,592
326,1455472061.45978236198425292969,592
327,1455472061.53033781051635742188,584
328,1455472061.60006809234619140625,584
329,1455472061.67102670669555664062,576
330,1455472061.73975396156311035156,568
331,1455472061.80968427658081054688,560
332,1455472061.88005971908569335938,552
333,1455472061.950237274169921875,544
334,1455472062.02111411094665527344,496
335,1455472062.09133005142211914062,504
336,1455472062.15973162651062011719,512
337,1455472062.23014855384826660156,520
338,1455472062.29976963996887207031,528
339,1455472062.37028646469116210938,536
340,1455472062.44024682044982910156,544
341,1455472062.51093649864196777344,552
342,1455472062.57999157905578613281,560
343,1455472062.64960432052612304688,568
344,1455472062.72092723846435546875,568
345,1455472062.78986120223999023438,576
346,1455472062.85965895652770996094,584
347,1455472062.93103861808776855469,592
348,1455472063.00016021728515625,592
349,1455472063.0709247589111328125,600
350,1455472063.14012002944946289062,600
351,1455472063.21059536933898925781,608
352,1455472063.27937436103820800781,608
353,1455472063.35138225555419921875,608
354,1455472063.42088913917541503906,608
355,1455472063.4899616241455078125,608
356,1455472063.5599498748779296875,608
357,1455472063.62994503974914550781,608
358,1455472063.70006155967712402344,608
359,1455472063.77214598655700683594,608
360,1455472063.84011244773864746094,608
361,1455472063.91227579116821289062,608
362,1455472063.98035907745361328125,600
363,1455472064.05013799667358398438,600
364,1455472064.12062048912048339844,592
365,1455472064.19133782386779785156,592
366,1455472064.25944662094116210938,584
367,1455472064.33033132553100585938,576
368,1455472064.39955806732177734375,576
369,1455472064.47095131874084472656,568
370,1455472064.539676666259765625,560
371,1455472064.61043834686279296875,552
372,1455472064.68015503883361816406,544
373,1455472064.74940466880798339844,536
374,1455472064.82045602798461914062,528
375,1455472064.89027833938598632812,520
376,1455472064.96006679534912109375,512
377,1455472065.0310268402099609375,504
378,1455472065.10006499290466308594,496
379,1455472065.17112827301025390625,488
380,1455472065.24010515213012695312,480
381,1455472065.30952405929565429688,472
382,1455472065.37979984283447265625,464
383,1455472065.45100235939025878906,456
384,1455472065.52030348777770996094,448
385,1455472065.58967423439025878906,440
386,1455472065.65967917442321777344,432
387,1455472065.73140573501586914062,424
388,1455472065.80044102668762207031,416
389,1455472065.87143397331237792969,408
390,1455472065.93988633155822753906,408
391,1455472066.01039648056030273438,400
392,1455472066.08002233505249023438,392
393,1455472066.15022730827331542969,392
394,1455472066.22064614295959472656,384
395,1455472066.29120612144470214844,384
396,1455472066.35939502716064453125,376
397,1455472066.43052530288696289062,376
398,1455472066.50006151199340820312,376
399,1455472066.57107186317443847656,376
400,1455472066.64005708694458007812,376
401,1455472066.71045947074890136719,376
402,1455472066.77970123291015625,376
403,1455472066.85013413429260253906,376
404,1455472066.92042708396911621094,376
405,1455472066.989925384521484375,376
406,1455472067.06017041206359863281,376
407,1455472067.13070797920227050781,384
408,1455472067.19991588592529296875,384
409,1455472067.27194142341613769531,392
410,1455472067.34154367446899414062,392
411,1455472067.40982103347778320312,400
412,1455472067.48005890846252441406,408
413,1455472067.5510463714599609375,408
414,1455472067.62077498435974121094,416
415,1455472067.689937591552734375,424
416,1455472067.76029896736145019531,432
417,1455472067.82942461967468261719,440
418,1455472067.89957880973815917969,448
419,1455472067.97192311286926269531,456
420,1455472068.03942918777465820312,464
421,1455472068.10943627357482910156,472
422,1455472068.18008065223693847656,480
423,1455472068.250087738037109375,488
424,1455472068.32014322280883789062,496
425,1455472068.39064264297485351562,504
426,1455472068.4602489471435546875,512
427,1455472068.52975940704345703125,520
428,1455472068.60011386871337890625,528
429,1455472068.6703739166259765625,536
430,1455472068.74028158187866210938,544
431,1455472068.81159090995788574219,552
432,1455472068.87991356849670410156,560
433,1455472068.95015430450439453125,568
434,1455472069.02029395103454589844,576
435,1455472069.09032297134399414062,576
436,1455472069.16008472442626953125,584
437,1455472069.23098206520080566406,592
438,1455472069.29950284957885742188,592
439,1455472069.37093448638916015625,600
440,1455472069.440090179443359375,600
441,1455472069.51017260551452636719,608
442,1455472069.58015465736389160156,608
443,1455472069.65069985389709472656,608
444,1455472069.72089481353759765625,608
445,1455472069.78995823860168457031,608
446,1455472069.86017298698425292969,608
447,1455472069.92984461784362792969,608
448,1455472069.99943876266479492188,608
449,1455472070.07134461402893066406,608
450,1455472070.14035725593566894531,608
451,1455472070.20991158485412597656,608
452,1455472070.27955079078674316406,600
453,1455472070.34996747970581054688,600
454,1455472070.42013812065124511719,592
455,1455472070.490650177001953125,592
456,1455472070.56053328514099121094,584
457,1455472070.63113331794738769531,576
458,1455472070.95922923088073730469,544
459,1455472070.96544146537780761719,544
460,1455472071.03191709518432617188,496
461,1455472071.1004619598388671875,504
462,1455472071.17094564437866210938,512
463,1455472071.2412548065185546875,520
464,1455472071.31115555763244628906,528
465,1455472071.38273763656616210938,536
466,1455472071.4503993988037109375,544
467,1455472071.5216522216796875,552
468,1455472071.59056162834167480469,560
469,1455472071.66220688819885253906,568
470,1455472071.73130822181701660156,576
471,1455472071.80101752281188964844,576
472,1455472071.87126612663269042969,584
473,1455472071.94057488441467285156,592
474,1455472072.01414155960083007812,592
475,1455472072.08425378799438476562,600
476,1455472072.15115618705749511719,600
477,1455472072.22095394134521484375,608
478,1455472072.29075121879577636719,608
479,1455472072.36215138435363769531,608
480,1455472072.43077397346496582031,608
481,1455472072.50175547599792480469,608
482,1455472072.5715770721435546875,608
483,1455472072.64411211013793945312,608
484,1455472072.71267938613891601562,608
485,1455472072.7815036773681640625,608
486,1455472072.85089588165283203125,608
487,1455472072.92124104499816894531,608
488,1455472072.99120473861694335938,600
489,1455472073.06216478347778320312,600
490,1455472073.13061594963073730469,592
491,1455472073.20160198211669921875,592
492,1455472073.27146458625793457031,584
493,1455472073.340667724609375,576
494,1455472073.41255426406860351562,568
495,1455472073.48099493980407714844,568
496,1455472073.55099368095397949219,560
497,1455472073.6214199066162109375,552
498,1455472073.691249847412109375,544
499,1455472073.76251173019409179688,536
500,1455472073.83126592636108398438,528
501,1455472073.90295267105102539062,520
502,1455472073.97075676918029785156,512
503,1455472074.04092311859130859375,504
504,1455472074.11471009254455566406,496
505,1455472074.18096399307250976562,488
