id, time (s), size (bits)
0,1455472038.65052866935729980469,432
1,1455472038.73009800910949707031,424
2,1455472038.81151127815246582031,416
3,1455472038.89056324958801269531,408
4,1455472038.97107434272766113281,400
5,1455472039.05128049850463867188,400
6,1455472039.13112163543701171875,392
7,1455472039.20947670936584472656,384
8,1455472039.29134106636047363281,384
9,1455472039.37048244476318359375,376
10,1455472039.45012617111206054688,376
11,1455472039.53055810928344726562,376
12,1455472039.60981726646423339844,376
13,1455472039.69147944450378417969,376
14,1455472039.77146601676940917969,376
15,1455472039.850399017333984375,376
16,1455472039.93064022064208984375,376
17,1455472040.01099371910095214844,376
18,1455472040.08986616134643554688,384
19,1455472040.17192006111145019531,384
20,1455472040.25162434577941894531,392
21,1455472040.32949113845825195312,392
22,1455472040.41049647331237792969,400
23,1455472040.49039983749389648438,408
24,1455472040.57038211822509765625,416
25,1455472040.65024566650390625,424
26,1455472040.73117566108703613281,432
27,1455472040.81095457077026367188,440
28,1455472040.88947534561157226562,448
29,1455472040.97205376625061035156,456
30,1455472041.05007839202880859375,464
31,1455472041.13000226020812988281,472
32,1455472041.21113133430480957031,480
33,1455472041.29005455970764160156,496
34,1455472041.37161612510681152344,504
35,1455472041.45130324363708496094,512
36,1455472041.53052735328674316406,520
37,1455472041.60986852645874023438,528
38,1455472041.69134092330932617188,536
39,1455472041.77211976051330566406,552
40,1455472041.8494434356689453125,560
41,1455472041.93151736259460449219,568
42,1455472042.01000213623046875,568
43,1455472042.09044003486633300781,576
44,1455472042.17170381546020507812,584
45,1455472042.24972248077392578125,592
46,1455472042.32998251914978027344,592
47,1455472042.41091299057006835938,600
48,1455472042.49062037467956542969,608
49,1455472042.57091212272644042969,608
50,1455472042.65137314796447753906,608
51,1455472042.73055124282836914062,608
52,1455472042.80998182296752929688,608
53,1455472042.89036154747009277344,608
54,1455472042.97044229507446289062,608
55,1455472043.05065631866455078125,608
56,1455472043.13042306900024414062,608
57,1455472043.2109355926513671875,608
58,1455472043.29017472267150878906,600
59,1455472043.37121248245239257812,600
60,1455472043.45005893707275390625,592
61,1455472043.53032231330871582031,584
62,1455472043.61242628097534179688,576
63,1455472043.69031047821044921875,576
64,1455472043.77095508575439453125,568
65,1455472043.85047101974487304688,560
66,1455472043.9300899505615234375,552
67,1455472044.0109996795654296875,496
68,1455472044.09111237525939941406,504
69,1455472044.17093610763549804688,512
70,1455472044.25003552436828613281,520
71,1455472044.33049559593200683594,528
72,1455472044.40963888168334960938,536
73,1455472044.48968577384948730469,552
74,1455472044.5710926055908203125,560
75,1455472044.64966750144958496094,568
76,1455472044.73050975799560546875,576
77,1455472044.81056094169616699219,576
78,1455472044.89074802398681640625,584
79,1455472044.97194337844848632812,592
80,1455472045.05086636543273925781,600
81,1455472045.13006305694580078125,600
82,1455472045.21036791801452636719,608
83,1455472045.291866302490234375,608
84,1455472045.37065100669860839844,608
85,1455472045.44969987869262695312,608
86,1455472045.53049254417419433594,608
87,1455472045.60979485511779785156,608
88,1455472045.6897602081298828125,608
89,1455472045.77162241935729980469,608
90,1455472045.85145401954650878906,608
91,1455472045.93003582954406738281,608
92,1455472046.01128649711608886719,600
93,1455472046.09004306793212890625,600
94,1455472046.17040920257568359375,592
95,1455472046.25146961212158203125,584
96,1455472046.33007097244262695312,576
97,1455472046.41061663627624511719,576
98,1455472046.49064970016479492188,568
99,1455472046.57054901123046875,560
100,1455472046.649875640869140625,552
101,1455472046.73075008392333984375,536
102,1455472046.80972957611083984375,528
103,1455472046.8900051116943359375,520
104,1455472046.972179412841796875,512
105,1455472047.05007171630859375,504
106,1455472047.13047313690185546875,496
107,1455472047.211162567138671875,480
108,1455472047.29101490974426269531,472
109,1455472047.37169742584228515625,464
110,1455472047.45106434822082519531,456
111,1455472047.53149747848510742188,448
112,1455472047.60969257354736328125,440
113,1455472047.69036722183227539062,432
114,1455472047.77044272422790527344,424
115,1455472047.85026240348815917969,416
116,1455472047.93137192726135253906,408
117,1455472048.01003956794738769531,400
118,1455472048.09055447578430175781,392
119,1455472048.17182254791259765625,392
120,1455472048.25019097328186035156,384
121,1455472048.32976746559143066406,384
122,1455472048.41097116470336914062,376
123,1455472048.49021029472351074219,376
124,1455472048.57114863395690917969,376
125,1455472048.65180897712707519531,376
126,1455472048.72994136810302734375,376
127,1455472048.81037640571594238281,376
128,1455472048.89137220382690429688,376
129,1455472048.97049188613891601562,376
130,1455472049.05078482627868652344,376
131,1455472049.13080048561096191406,384
132,1455472049.21135210990905761719,384
133,1455472049.28975057601928710938,392
134,1455472049.37282323837280273438,400
135,1455472049.45034027099609375,400
136,1455472049.52962040901184082031,408
137,1455472049.61096119880676269531,416
138,1455472049.69046926498413085938,424
139,1455472049.77159619331359863281,432
140,1455472049.85075521469116210938,440
141,1455472049.92986893653869628906,448
142,1455472050.00973677635192871094,456
143,1455472050.09072422981262207031,472
144,1455472050.17114019393920898438,480
145,1455472050.25027990341186523438,488
146,1455472050.33172965049743652344,496
147,1455472050.41015267372131347656,504
148,1455472050.48965120315551757812,520
149,1455472050.57134509086608886719,528
150,1455472050.65028357505798339844,536
151,1455472050.72992229461669921875,544
152,1455472050.81079435348510742188,552
153,1455472050.89108180999755859375,560
154,1455472050.97058749198913574219,568
155,1455472051.05075788497924804688,576
156,1455472051.13010644912719726562,584
157,1455472051.21032595634460449219,584
158,1455472051.29035115242004394531,592
159,1455472051.3708400726318359375,600
160,1455472051.45093441009521484375,600
161,1455472051.53094983100891113281,608
162,1455472051.61079525947570800781,608
163,1455472051.69049096107482910156,608
164,1455472051.77159023284912109375,608
165,1455472051.84998202323913574219,608
166,1455472051.93002033233642578125,608
167,1455472052.01211833953857421875,608
168,1455472052.08986210823059082031,608
169,1455472052.17070484161376953125,608
170,1455472052.25037431716918945312,600
171,1455472052.3298664093017578125,600
172,1455472052.41126513481140136719,592
173,1455472052.49092078208923339844,592
174,1455472052.57176685333251953125,584
175,1455472052.65043973922729492188,576
176,1455472052.73171591758728027344,568
177,1455472052.80988597869873046875,560
178,1455472052.89055752754211425781,552
179,1455472052.97174215316772460938,544
180,1455472053.05036377906799316406,496
181,1455472053.131061553955078125,504
182,1455472053.21071958541870117188,520
183,1455472053.29015231132507324219,528
184,1455472053.3705348968505859375,536
185,1455472053.45075488090515136719,544
186,1455472053.53036737442016601562,552
187,1455472053.610439300537109375,560
188,1455472053.69138383865356445312,568
189,1455472053.77001643180847167969,576
190,1455472053.85048890113830566406,584
191,1455472053.93082141876220703125,592
192,1455472054.01223897933959960938,592
193,1455472054.08999347686767578125,600
194,1455472054.17277097702026367188,600
195,1455472054.25094461441040039062,608
196,1455472054.33013582229614257812,608
197,1455472054.41095852851867675781,608
198,1455472054.49011111259460449219,608
199,1455472054.57113051414489746094,608
200,1455472054.65102458000183105469,608
201,1455472054.73002266883850097656,608
202,1455472054.81121015548706054688,608
203,1455472054.89113140106201171875,608
204,1455472054.97113323211669921875,600
205,1455472055.04976701736450195312,600
206,1455472055.13134264945983886719,592
207,1455472055.21009373664855957031,592
208,1455472055.29017424583435058594,584
209,1455472055.37245225906372070312,576
210,1455472055.45017862319946289062,568
211,1455472055.53006267547607421875,560
212,1455472055.61120009422302246094,552
213,1455472055.69017243385314941406,544
214,1455472055.77060246467590332031,536
215,1455472055.85058283805847167969,528
216,1455472055.93062615394592285156,520
217,1455472056.00977110862731933594,504
218,1455472056.09220385551452636719,496
219,1455472056.17109704017639160156,488
220,1455472056.25019860267639160156,480
221,1455472056.33114576339721679688,472
222,1455472056.41018152236938476562,464
223,1455472056.49121236801147460938,448
224,1455472056.57126617431640625,440
225,1455472056.65040993690490722656,432
226,1455472056.73040866851806640625,424
227,1455472056.81071567535400390625,416
228,1455472056.89046788215637207031,408
229,1455472056.97031354904174804688,400
230,1455472057.05159521102905273438,400
231,1455472057.12953829765319824219,392
232,1455472057.21044063568115234375,384
233,1455472057.29122233390808105469,384
234,1455472057.37044477462768554688,376
235,1455472057.44994211196899414062,376
236,1455472057.53260517120361328125,376
237,1455472057.61072897911071777344,376
238,1455472057.69138956069946289062,376
239,1455472057.77159857749938964844,376
240,1455472057.84979891777038574219,376
241,1455472057.93018507957458496094,376
242,1455472058.01197052001953125,376
243,1455472058.08989048004150390625,384
244,1455472058.17169165611267089844,384
245,1455472058.25080609321594238281,392
246,1455472058.32947850227355957031,392
247,1455472058.40975165367126464844,400
248,1455472058.4911975860595703125,408
249,1455472058.57039880752563476562,416
250,1455472058.65048909187316894531,424
251,1455472058.7318935394287109375,432
252,1455472058.8102588653564453125,440
253,1455472058.89013671875,448
254,1455472058.97196555137634277344,456
255,1455472059.05017781257629394531,464
256,1455472059.13014173507690429688,472
257,1455472059.21099328994750976562,480
258,1455472059.29108691215515136719,496
259,1455472059.37052035331726074219,504
260,1455472059.45103597640991210938,512
261,1455472059.53002238273620605469,520
262,1455472059.610340118408203125,528
263,1455472059.69065189361572265625,536
264,1455472059.7710170745849609375,552
265,1455472059.85120511054992675781,560
266,1455472059.93110132217407226562,568
267,1455472060.00974369049072265625,568
268,1455472060.089496612548828125,576
269,1455472060.17143177986145019531,584
270,1455472060.25033426284790039062,592
271,1455472060.33003830909729003906,592
272,1455472060.4120388031005859375,600
273,1455472060.48980450630187988281,608
274,1455472060.57051134109497070312,608
275,1455472060.65087938308715820312,608
276,1455472060.73041486740112304688,608
277,1455472060.81106448173522949219,608
278,1455472060.89066481590270996094,608
279,1455472060.97146677970886230469,608
280,1455472061.04993748664855957031,608
281,1455472061.13162779808044433594,608
282,1455472061.2097148895263671875,608
283,1455472061.28990626335144042969,600
284,1455472061.37199616432189941406,600
285,1455472061.44960260391235351562,592
286,1455472061.53118944168090820312,584
287,1455472061.61122274398803710938,576
288,1455472061.68972849845886230469,576
289,1455472061.77061772346496582031,568
290,1455472061.85082507133483886719,560
291,1455472061.93003344535827636719,552
292,1455472062.00963544845581054688,496
293,1455472062.09197592735290527344,504
294,1455472062.17081999778747558594,512
295,1455472062.2522411346435546875,520
296,1455472062.3308277130126953125,528
297,1455472062.41167497634887695312,544
298,1455472062.48983311653137207031,552
299,1455472062.57170939445495605469,560
300,1455472062.65045046806335449219,568
301,1455472062.72989869117736816406,576
302,1455472062.81091284751892089844,576
303,1455472062.88987898826599121094,584
304,1455472062.97109961509704589844,592
305,1455472063.05273103713989257812,600
306,1455472063.13006091117858886719,600
307,1455472063.2114620208740234375,608
308,1455472063.2903900146484375,608
309,1455472063.3704833984375,608
310,1455472063.45011591911315917969,608
311,1455472063.53082633018493652344,608
312,1455472063.61082530021667480469,608
313,1455472063.68973994255065917969,608
314,1455472063.77281904220581054688,608
315,1455472063.85026979446411132812,608
316,1455472063.93131279945373535156,608
317,1455472064.01076078414916992188,600
318,1455472064.09022045135498046875,600
319,1455472064.17113661766052246094,592
320,1455472064.25150609016418457031,584
321,1455472064.33120799064636230469,576
322,1455472064.40948224067687988281,576
323,1455472064.49259781837463378906,568
324,1455472064.57057547569274902344,560
325,1455472064.65011882781982421875,552
326,1455472064.73138189315795898438,536
327,1455472064.81034541130065917969,528
328,1455472064.89114522933959960938,520
329,1455472064.97188830375671386719,512
330,1455472065.05032086372375488281,504
331,1455472065.12987422943115234375,496
332,1455472065.21125674247741699219,480
333,1455472065.290401458740234375,472
334,1455472065.37063694000244140625,464
335,1455472065.45165038108825683594,456
336,1455472065.53039526939392089844,448
337,1455472065.60972547531127929688,440
338,1455472065.69077658653259277344,432
339,1455472065.77063536643981933594,424
340,1455472065.85060787200927734375,416
341,1455472065.93203186988830566406,408
342,1455472066.01132273674011230469,400
343,1455472066.08999371528625488281,392
344,1455472066.17121458053588867188,392
345,1455472066.24967718124389648438,384
346,1455472066.33027482032775878906,384
347,1455472066.41118979454040527344,376
348,1455472066.49011135101318359375,376
349,1455472066.57190489768981933594,376
350,1455472066.65143990516662597656,376
351,1455472066.72949314117431640625,376
352,1455472066.80952286720275878906,376
353,1455472066.89114427566528320312,376
354,1455472066.97195649147033691406,376
355,1455472067.05077624320983886719,376
356,1455472067.13134694099426269531,384
357,1455472067.2099170684814453125,384
358,1455472067.29020857810974121094,392
359,1455472067.37141847610473632812,400
360,1455472067.44986414909362792969,400
361,1455472067.53002572059631347656,408
362,1455472067.61149001121520996094,416
363,1455472067.69085383415222167969,424
364,1455472067.77047204971313476562,432
365,1455472067.85071229934692382812,440
366,1455472067.92993855476379394531,448
367,1455472068.010791778564453125,456
368,1455472068.09037470817565917969,472
369,1455472068.17089748382568359375,480
370,1455472068.251026153564453125,488
371,1455472068.33130383491516113281,496
372,1455472068.41061449050903320312,504
373,1455472068.49001383781433105469,520
374,1455472068.57171368598937988281,528
375,1455472068.65028738975524902344,536
376,1455472068.73035144805908203125,544
377,1455472068.81225609779357910156,552
378,1455472068.8900051116943359375,560
379,1455472068.97105121612548828125,568
380,1455472069.05059123039245605469,576
381,1455472069.13013005256652832031,584
382,1455472069.210865020751953125,592
383,1455472069.29135942459106445312,592
384,1455472069.37159180641174316406,600
385,1455472069.45032668113708496094,600
386,1455472069.53185558319091796875,608
387,1455472069.60951733589172363281,608
388,1455472069.69044518470764160156,608
389,1455472069.77145695686340332031,608
390,1455472069.8499755859375,608
391,1455472069.93092226982116699219,608
392,1455472070.01068520545959472656,608
393,1455472070.08979535102844238281,608
394,1455472070.17068314552307128906,608
395,1455472070.25110554695129394531,600
396,1455472070.32996630668640136719,600
397,1455472070.40996956825256347656,592
398,1455472070.49141907691955566406,592
399,1455472070.57074522972106933594,584
400,1455472070.95660424232482910156,544
401,1455472070.96331954002380371094,544
402,1455472071.03827929496765136719,496
403,1455472071.11865830421447753906,504
404,1455472071.19807195663452148438,512
405,1455472071.27821636199951171875,528
406,1455472071.35786962509155273438,536
407,1455472071.43849635124206542969,544
408,1455472071.51877951622009277344,552
409,1455472071.59856176376342773438,560
410,1455472071.67933750152587890625,568
411,1455472071.75801515579223632812,576
412,1455472071.83888673782348632812,584
413,1455472071.9188518524169921875,584
414,1455472071.99821352958679199219,592
415,1455472072.07863903045654296875,600
416,1455472072.15824556350708007812,600
417,1455472072.238643646240234375,608
418,1455472072.31838560104370117188,608
419,1455472072.39987826347351074219,608
420,1455472072.4786548614501953125,608
421,1455472072.55850768089294433594,608
422,1455472072.63991451263427734375,608
423,1455472072.71854519844055175781,608
424,1455472072.79879665374755859375,608
425,1455472072.87876129150390625,608
426,1455472072.95913219451904296875,600
427,1455472073.03834247589111328125,600
428,1455472073.11881518363952636719,592
429,1455472073.19870710372924804688,592
430,1455472073.27869153022766113281,584
431,1455472073.35882019996643066406,576
432,1455472073.43813443183898925781,568
433,1455472073.5178699493408203125,560
434,1455472073.59901452064514160156,552
435,1455472073.67853331565856933594,544
436,1455472073.75852108001708984375,536
437,1455472073.83782839775085449219,528
438,1455472073.91836285591125488281,520
439,1455472073.9989566802978515625,512
440,1455472074.07781338691711425781,496
441,1455472074.15895438194274902344,488
442,1455472074.23804593086242675781,480
443,1455472074.31933736801147460938,472
444,1455472074.39961338043212890625,464
445,1455472074.47903037071228027344,456
446,1455472074.558437347412109375,440
447,1455472074.63839221000671386719,432
448,1455472074.71832871437072753906,424
449,1455472074.79856252670288085938,416
450,1455472074.87964749336242675781,408
451,1455472074.9589328765869140625,408
452,1455472075.03848981857299804688,400
453,1455472075.11850905418395996094,392
454,1455472075.19821453094482421875,384
455,1455472075.27872514724731445312,384
456,1455472075.35855865478515625,376
457,1455472075.43899679183959960938,376
458,1455472075.51882600784301757812,376
459,1455472075.59870409965515136719,376
460,1455472075.67875409126281738281,376
461,1455472075.75907945632934570312,376
462,1455472075.83883547782897949219,376
463,1455472075.91887688636779785156,376
464,1455472075.9994068145751953125,376
465,1455472076.07802295684814453125,376
466,1455472076.15897107124328613281,384
467,1455472076.23813366889953613281,392
468,1455472076.31868410110473632812,392
469,1455472076.39797544479370117188,400
470,1455472076.47831487655639648438,408
471,1455472076.56040859222412109375,416
472,1455472076.63840794563293457031,416
473,1455472076.71871352195739746094,424
474,1455472076.79865694046020507812,440
475,1455472076.87790322303771972656,448
476,1455472076.95828700065612792969,456
477,1455472077.03850483894348144531,464
478,1455472077.11895537376403808594,472
479,1455472077.19860410690307617188,480
480,1455472077.27964162826538085938,488
481,1455472077.35897898674011230469,504
482,1455472077.44004583358764648438,512
483,1455472077.51875543594360351562,520
484,1455472077.59787201881408691406,528
485,1455472077.67886185646057128906,536
486,1455472077.7587070465087890625,544
487,1455472077.83792877197265625,552
488,1455472077.9183864593505859375,560
489,1455472077.9995880126953125,568
490,1455472078.0785884857177734375,576
491,1455472078.15835785865783691406,584
492,1455472078.23867559432983398438,592
493,1455472078.31808376312255859375,592
494,1455472078.39821934700012207031,600
495,1455472078.47782206535339355469,600
496,1455472078.5595073699951171875,608
497,1455472078.638675689697265625,608
498,1455472078.71816730499267578125,608
499,1455472078.79899764060974121094,608
500,1455472078.87806391716003417969,608
501,1455472078.95825028419494628906,608
502,1455472079.03857064247131347656,608
503,1455472079.1193065643310546875,608
504,1455472079.19859671592712402344,608
