id, time (s), size (bits)
0,1455472029.49346089363098144531,448
1,1455472029.55271506309509277344,448
2,1455472029.61309027671813964844,440
3,1455472029.67336535453796386719,432
4,1455472029.73398876190185546875,424
5,1455472029.7927799224853515625,416
6,1455472029.85312819480895996094,416
7,1455472029.91308188438415527344,408
8,1455472029.97269701957702636719,400
9,1455472030.03348302841186523438,400
10,1455472030.09286570549011230469,392
11,1455472030.15350127220153808594,392
12,1455472030.21276044845581054688,384
13,1455472030.27345919609069824219,384
14,1455472030.33380389213562011719,384
15,1455472030.39271807670593261719,376
16,1455472030.45317673683166503906,376
17,1455472030.51285600662231445312,376
18,1455472030.57240700721740722656,376
19,1455472030.63358211517333984375,376
20,1455472030.69321894645690917969,376
21,1455472030.75293517112731933594,376
22,1455472030.81303572654724121094,376
23,1455472030.87340331077575683594,376
24,1455472030.93348836898803710938,376
25,1455472030.99268198013305664062,376
26,1455472031.05338454246520996094,376
27,1455472031.11307930946350097656,384
28,1455472031.17308664321899414062,384
29,1455472031.23393154144287109375,384
30,1455472031.29230785369873046875,392
31,1455472031.35276389122009277344,392
32,1455472031.41279745101928710938,400
33,1455472031.47317004203796386719,408
34,1455472031.53337693214416503906,408
35,1455472031.59282708168029785156,416
36,1455472031.65315914154052734375,424
37,1455472031.71225523948669433594,424
38,1455472031.77262639999389648438,432
39,1455472031.83372282981872558594,440
40,1455472031.89323329925537109375,448
41,1455472031.95250797271728515625,456
42,1455472032.0127277374267578125,456
43,1455472032.07340764999389648438,464
44,1455472032.13404726982116699219,472
45,1455472032.19270539283752441406,480
46,1455472032.25288319587707519531,488
47,1455472032.31307697296142578125,496
48,1455472032.37329196929931640625,504
49,1455472032.43357086181640625,512
50,1455472032.4928607940673828125,520
51,1455472032.55299282073974609375,520
52,1455472032.61328840255737304688,528
53,1455472032.67258405685424804688,536
54,1455472032.73401427268981933594,544
55,1455472032.79308009147644042969,552
56,1455472032.85308861732482910156,560
57,1455472032.91326451301574707031,560
58,1455472032.97291541099548339844,568
59,1455472033.03387522697448730469,576
60,1455472033.09317517280578613281,576
61,1455472033.15305066108703613281,584
62,1455472033.21334505081176757812,592
63,1455472033.27294421195983886719,592
64,1455472033.33299136161804199219,600
65,1455472033.39293408393859863281,600
66,1455472033.45294451713562011719,600
67,1455472033.51310777664184570312,608
68,1455472033.57309937477111816406,608
69,1455472033.63340783119201660156,608
70,1455472033.69282460212707519531,608
71,1455472033.75316929817199707031,608
72,1455472033.81246185302734375,608
73,1455472033.87303256988525390625,608
74,1455472033.93353414535522460938,608
75,1455472033.99249124526977539062,608
76,1455472034.05297875404357910156,608
77,1455472034.1129703521728515625,608
78,1455472034.1732330322265625,608
79,1455472034.23339200019836425781,600
80,1455472034.29265856742858886719,600
81,1455472034.35221910476684570312,600
82,1455472034.41333556175231933594,592
83,1455472034.47302675247192382812,592
84,1455472034.53302621841430664062,584
85,1455472034.59312987327575683594,584
86,1455472034.65303659439086914062,576
87,1455472034.71243047714233398438,568
88,1455472034.77232408523559570312,568
89,1455472034.83373379707336425781,560
90,1455472034.89331316947937011719,552
91,1455472034.95302271842956542969,544
92,1455472035.01340818405151367188,496
93,1455472035.07299852371215820312,504
94,1455472035.13320708274841308594,504
95,1455472035.19275045394897460938,512
96,1455472035.25273251533508300781,520
97,1455472035.31301093101501464844,528
98,1455472035.37311506271362304688,536
99,1455472035.43373847007751464844,544
100,1455472035.49326229095458984375,552
101,1455472035.55234360694885253906,552
102,1455472035.61224007606506347656,560
103,1455472035.67247986793518066406,568
104,1455472035.73383188247680664062,576
105,1455472035.79298424720764160156,576
106,1455472035.85305762290954589844,584
107,1455472035.91273570060729980469,584
108,1455472035.97294950485229492188,592
109,1455472036.0336322784423828125,592
110,1455472036.09332776069641113281,600
111,1455472036.15259766578674316406,600
112,1455472036.21282958984375,608
113,1455472036.27309775352478027344,608
114,1455472036.3334789276123046875,608
115,1455472036.39312911033630371094,608
116,1455472036.45272278785705566406,608
117,1455472036.51272702217102050781,608
118,1455472036.57297635078430175781,608
119,1455472036.63337945938110351562,608
120,1455472036.69272923469543457031,608
121,1455472036.75313520431518554688,608
122,1455472036.81256818771362304688,608
123,1455472036.87268590927124023438,608
124,1455472036.93360662460327148438,608
125,1455472036.99309682846069335938,600
126,1455472037.05261301994323730469,600
127,1455472037.11297392845153808594,592
128,1455472037.173305511474609375,592
129,1455472037.23313069343566894531,584
130,1455472037.29285001754760742188,584
131,1455472037.35325312614440917969,576
132,1455472037.4126758575439453125,568
133,1455472037.47310233116149902344,568
134,1455472037.53409075736999511719,560
135,1455472037.59353470802307128906,552
136,1455472037.65259861946105957031,552
137,1455472037.71284365653991699219,544
138,1455472037.77355122566223144531,536
139,1455472037.83401012420654296875,528
140,1455472037.89294195175170898438,520
141,1455472037.95305681228637695312,512
142,1455472038.01248836517333984375,504
143,1455472038.0734157562255859375,504
144,1455472038.13312220573425292969,496
145,1455472038.19302606582641601562,488
146,1455472038.253391265869140625,480
147,1455472038.31367707252502441406,472
148,1455472038.37332391738891601562,464
149,1455472038.4333324432373046875,456
150,1455472038.49290037155151367188,448
151,1455472038.55277419090270996094,448
152,1455472038.69232487678527832031,432
153,1455472038.69533491134643554688,432
154,1455472038.733715057373046875,424
155,1455472038.79305791854858398438,416
156,1455472038.85307359695434570312,416
157,1455472038.91275167465209960938,408
158,1455472038.97327852249145507812,400
159,1455472039.03322076797485351562,400
160,1455472039.09315419197082519531,392
161,1455472039.15237259864807128906,392
162,1455472039.21217942237854003906,384
163,1455472039.272979736328125,384
164,1455472039.333255767822265625,384
165,1455472039.39315056800842285156,376
166,1455472039.45241880416870117188,376
167,1455472039.51364016532897949219,376
168,1455472039.57298326492309570312,376
169,1455472039.63338541984558105469,376
170,1455472039.69245505332946777344,376
171,1455472039.75315308570861816406,376
172,1455472039.8128757476806640625,376
173,1455472039.87313055992126464844,376
174,1455472039.93366599082946777344,376
175,1455472039.99280905723571777344,376
176,1455472040.05248236656188964844,376
177,1455472040.11226749420166015625,384
178,1455472040.17267632484436035156,384
179,1455472040.23347234725952148438,384
180,1455472040.29289674758911132812,392
181,1455472040.35269808769226074219,392
182,1455472040.41287517547607421875,400
183,1455472040.47265410423278808594,408
184,1455472040.533931732177734375,408
185,1455472040.59255886077880859375,416
186,1455472040.65225625038146972656,424
187,1455472040.71332907676696777344,424
188,1455472040.773334503173828125,432
189,1455472040.83491563796997070312,440
190,1455472040.89246487617492675781,448
191,1455472040.95299458503723144531,456
192,1455472041.01321125030517578125,456
193,1455472041.072994232177734375,464
194,1455472041.13350009918212890625,472
195,1455472041.19319462776184082031,480
196,1455472041.25218105316162109375,488
197,1455472041.3127079010009765625,496
198,1455472041.37226200103759765625,504
199,1455472041.43410062789916992188,512
200,1455472041.49316000938415527344,520
201,1455472041.55309081077575683594,520
202,1455472041.61228990554809570312,528
203,1455472041.67276978492736816406,536
204,1455472041.73301005363464355469,544
205,1455472041.7925205230712890625,552
206,1455472041.85322165489196777344,560
207,1455472041.91265583038330078125,560
208,1455472041.97301411628723144531,568
209,1455472042.033123016357421875,576
210,1455472042.09222865104675292969,576
211,1455472042.15270185470581054688,584
212,1455472042.21226024627685546875,592
213,1455472042.27255463600158691406,592
214,1455472042.33411121368408203125,600
215,1455472042.39244771003723144531,600
216,1455472042.45272922515869140625,600
217,1455472042.51311707496643066406,608
218,1455472042.572353363037109375,608
219,1455472042.63369822502136230469,608
220,1455472042.69276905059814453125,608
221,1455472042.75323176383972167969,608
222,1455472042.8131847381591796875,608
223,1455472042.8735332489013671875,608
224,1455472042.93376612663269042969,608
225,1455472042.99319291114807128906,608
226,1455472043.05223751068115234375,608
227,1455472043.11315822601318359375,608
228,1455472043.17319059371948242188,608
229,1455472043.23321843147277832031,600
230,1455472043.29301738739013671875,600
231,1455472043.35347604751586914062,600
232,1455472043.41288471221923828125,592
233,1455472043.472412109375,592
234,1455472043.53472256660461425781,584
235,1455472043.592319488525390625,584
236,1455472043.65243124961853027344,576
237,1455472043.71298694610595703125,568
238,1455472043.77333402633666992188,568
239,1455472043.83390665054321289062,560
240,1455472043.89309024810791015625,552
241,1455472043.95307016372680664062,544
242,1455472044.01324510574340820312,496
243,1455472044.07285356521606445312,504
244,1455472044.13306546211242675781,504
245,1455472044.19282770156860351562,512
246,1455472044.25271058082580566406,520
247,1455472044.31287717819213867188,528
248,1455472044.3723201751708984375,536
249,1455472044.43391537666320800781,544
250,1455472044.49313569068908691406,552
251,1455472044.55339932441711425781,552
252,1455472044.61350607872009277344,560
253,1455472044.672946929931640625,568
254,1455472044.73315763473510742188,576
255,1455472044.793209075927734375,576
256,1455472044.85321259498596191406,584
257,1455472044.91226744651794433594,584
258,1455472044.97336745262145996094,592
259,1455472045.03393292427062988281,592
260,1455472045.09293723106384277344,600
261,1455472045.15277528762817382812,600
262,1455472045.21309423446655273438,608
263,1455472045.27253890037536621094,608
264,1455472045.33320546150207519531,608
265,1455472045.39437961578369140625,608
266,1455472045.45275211334228515625,608
267,1455472045.51291060447692871094,608
268,1455472045.57319521903991699219,608
269,1455472045.63343405723571777344,608
270,1455472045.69273257255554199219,608
271,1455472045.7531871795654296875,608
272,1455472045.81307697296142578125,608
273,1455472045.87323427200317382812,608
274,1455472045.93299794197082519531,608
275,1455472045.99349331855773925781,600
276,1455472046.052639007568359375,600
277,1455472046.11299490928649902344,592
278,1455472046.17311334609985351562,592
279,1455472046.23425626754760742188,584
280,1455472046.29308056831359863281,584
281,1455472046.35280704498291015625,576
282,1455472046.41246867179870605469,568
283,1455472046.47248005867004394531,568
284,1455472046.53358602523803710938,560
285,1455472046.59272503852844238281,552
286,1455472046.65324759483337402344,552
287,1455472046.71333479881286621094,544
288,1455472046.77336621284484863281,536
289,1455472046.83306360244750976562,528
290,1455472046.89300632476806640625,520
291,1455472046.95295786857604980469,512
292,1455472047.01518654823303222656,504
293,1455472047.07288122177124023438,504
294,1455472047.13338446617126464844,496
295,1455472047.19461560249328613281,488
296,1455472047.25277996063232421875,480
297,1455472047.31242537498474121094,472
298,1455472047.37329697608947753906,464
299,1455472047.433551788330078125,456
300,1455472047.49289941787719726562,448
301,1455472047.55296778678894042969,448
302,1455472047.61319780349731445312,440
303,1455472047.672878265380859375,432
304,1455472047.73330712318420410156,424
305,1455472047.79386830329895019531,416
306,1455472047.85273885726928710938,416
307,1455472047.91286110877990722656,408
308,1455472047.97305011749267578125,400
309,1455472048.03391146659851074219,400
310,1455472048.09454822540283203125,392
311,1455472048.15321803092956542969,392
312,1455472048.21260738372802734375,384
313,1455472048.27287936210632324219,384
314,1455472048.33374047279357910156,384
315,1455472048.39299917221069335938,376
316,1455472048.45300412178039550781,376
317,1455472048.51234650611877441406,376
318,1455472048.57280564308166503906,376
319,1455472048.63321661949157714844,376
320,1455472048.69234108924865722656,376
321,1455472048.75335359573364257812,376
322,1455472048.81280231475830078125,376
323,1455472048.87245845794677734375,376
324,1455472048.9337406158447265625,376
325,1455472048.99316501617431640625,376
326,1455472049.05294871330261230469,376
327,1455472049.11297488212585449219,384
328,1455472049.17287182807922363281,384
329,1455472049.23329257965087890625,384
330,1455472049.29315471649169921875,392
331,1455472049.35293078422546386719,392
332,1455472049.41215205192565917969,400
333,1455472049.47256970405578613281,408
334,1455472049.53336620330810546875,408
335,1455472049.59295225143432617188,416
336,1455472049.65288972854614257812,424
337,1455472049.71276450157165527344,424
338,1455472049.77255749702453613281,432
339,1455472049.83412861824035644531,440
340,1455472049.89268851280212402344,448
341,1455472049.95322465896606445312,456
342,1455472050.01343679428100585938,464
343,1455472050.07275986671447753906,464
344,1455472050.13311529159545898438,472
345,1455472050.19314694404602050781,480
346,1455472050.25255298614501953125,488
347,1455472050.3132228851318359375,496
348,1455472050.37251448631286621094,504
349,1455472050.43387722969055175781,512
350,1455472050.49306368827819824219,520
351,1455472050.55288672447204589844,520
352,1455472050.61301374435424804688,528
353,1455472050.67326855659484863281,536
354,1455472050.73377776145935058594,544
355,1455472050.79331755638122558594,552
356,1455472050.8526172637939453125,560
357,1455472050.91279172897338867188,560
358,1455472050.972255706787109375,568
359,1455472051.03359365463256835938,576
360,1455472051.09303617477416992188,576
361,1455472051.15262889862060546875,584
362,1455472051.21323752403259277344,592
363,1455472051.27263498306274414062,592
364,1455472051.333797454833984375,600
365,1455472051.39289593696594238281,600
366,1455472051.4527454376220703125,600
367,1455472051.51314997673034667969,608
368,1455472051.57271027565002441406,608
369,1455472051.63398098945617675781,608
370,1455472051.69234442710876464844,608
371,1455472051.752819061279296875,608
372,1455472051.81328320503234863281,608
373,1455472051.87292218208312988281,608
374,1455472051.93459391593933105469,608
375,1455472051.99282550811767578125,608
376,1455472052.05293250083923339844,608
377,1455472052.11330509185791015625,608
378,1455472052.17308688163757324219,608
379,1455472052.23345589637756347656,600
380,1455472052.29227924346923828125,600
381,1455472052.35271120071411132812,600
382,1455472052.4122562408447265625,592
383,1455472052.47305011749267578125,592
384,1455472052.53322172164916992188,584
385,1455472052.59267115592956542969,584
386,1455472052.65303754806518554688,576
387,1455472052.71318840980529785156,568
388,1455472052.77240872383117675781,568
389,1455472052.83382821083068847656,560
390,1455472052.89318013191223144531,552
391,1455472052.95370459556579589844,544
392,1455472053.0132961273193359375,496
393,1455472053.07283449172973632812,504
394,1455472053.13320159912109375,504
395,1455472053.1927642822265625,512
396,1455472053.25314974784851074219,520
397,1455472053.31232237815856933594,528
398,1455472053.37342905998229980469,536
399,1455472053.43393230438232421875,544
400,1455472053.49288916587829589844,552
401,1455472053.55236363410949707031,552
402,1455472053.61252045631408691406,560
403,1455472053.67275595664978027344,568
404,1455472053.73557114601135253906,576
405,1455472053.79323339462280273438,576
406,1455472053.85258436203002929688,584
407,1455472053.91272091865539550781,584
408,1455472053.97314858436584472656,592
409,1455472054.03384065628051757812,592
410,1455472054.09264802932739257812,600
411,1455472054.15275692939758300781,600
412,1455472054.21311998367309570312,608
413,1455472054.27250003814697265625,608
414,1455472054.33298802375793457031,608
415,1455472054.39330339431762695312,608
416,1455472054.45266079902648925781,608
417,1455472054.51253962516784667969,608
418,1455472054.57239246368408203125,608
419,1455472054.63350915908813476562,608
420,1455472054.69297361373901367188,608
421,1455472054.7536220550537109375,608
422,1455472054.81292200088500976562,608
423,1455472054.87422299385070800781,608
424,1455472054.9338207244873046875,608
425,1455472054.993068695068359375,600
426,1455472055.05445218086242675781,600
427,1455472055.11341834068298339844,592
428,1455472055.17277121543884277344,592
429,1455472055.23598599433898925781,584
430,1455472055.29262471199035644531,584
431,1455472055.35278081893920898438,576
432,1455472055.41294026374816894531,568
433,1455472055.47320032119750976562,568
434,1455472055.5337677001953125,560
435,1455472055.59319138526916503906,552
436,1455472055.65326046943664550781,552
437,1455472055.71262860298156738281,544
438,1455472055.77319502830505371094,536
439,1455472055.83347153663635253906,528
440,1455472055.893642425537109375,520
441,1455472055.9525775909423828125,512
442,1455472056.01327729225158691406,504
443,1455472056.07239627838134765625,504
444,1455472056.13360333442687988281,496
445,1455472056.19281077384948730469,488
446,1455472056.25253701210021972656,480
447,1455472056.31354856491088867188,472
448,1455472056.37264275550842285156,464
449,1455472056.43339514732360839844,456
450,1455472056.492767333984375,448
451,1455472056.553279876708984375,440
452,1455472056.61271762847900390625,440
453,1455472056.6724071502685546875,432
454,1455472056.73340106010437011719,424
455,1455472056.79261112213134765625,416
456,1455472056.85302472114562988281,416
457,1455472056.91254544258117675781,408
458,1455472056.97309327125549316406,400
459,1455472057.03396010398864746094,400
460,1455472057.09311366081237792969,392
461,1455472057.15287542343139648438,392
462,1455472057.21279954910278320312,384
463,1455472057.27314734458923339844,384
464,1455472057.33338952064514160156,384
465,1455472057.39297175407409667969,376
466,1455472057.453182220458984375,376
467,1455472057.51311469078063964844,376
468,1455472057.57315683364868164062,376
469,1455472057.63315510749816894531,376
470,1455472057.693073272705078125,376
471,1455472057.75310420989990234375,376
472,1455472057.81317019462585449219,376
473,1455472057.87288212776184082031,376
474,1455472057.93348741531372070312,376
475,1455472057.99307799339294433594,376
476,1455472058.05298900604248046875,376
477,1455472058.11316895484924316406,384
478,1455472058.17315125465393066406,384
479,1455472058.23364973068237304688,384
480,1455472058.29254913330078125,392
481,1455472058.35307598114013671875,392
482,1455472058.41249752044677734375,400
483,1455472058.47303915023803710938,408
484,1455472058.53343129158020019531,408
485,1455472058.59328985214233398438,416
486,1455472058.6531085968017578125,424
487,1455472058.71259713172912597656,424
488,1455472058.77273654937744140625,432
489,1455472058.83386588096618652344,440
490,1455472058.89229893684387207031,448
491,1455472058.95296931266784667969,456
492,1455472059.01312971115112304688,456
493,1455472059.07309484481811523438,464
494,1455472059.13366222381591796875,472
495,1455472059.19329190254211425781,480
496,1455472059.25265741348266601562,488
497,1455472059.31382322311401367188,496
498,1455472059.37213492393493652344,504
499,1455472059.43374538421630859375,512
500,1455472059.49301886558532714844,520
501,1455472059.55296397209167480469,520
502,1455472059.61227369308471679688,528
503,1455472059.6730442047119140625,536
504,1455472059.73400235176086425781,544
