id, time (s), size (bits)
0,1455472029.71406292915344238281,1455472029.7150115966796875,448
1,1455472029.8650722503662109375,1455472029.86553645133972167969,440
2,1455472029.96087670326232910156,1455472029.96135044097900390625,432
3,1455472030.0189914703369140625,1455472030.01949048042297363281,424
4,1455472030.05937695503234863281,1455472030.05992722511291503906,424
5,1455472030.07951402664184570312,1455472030.07996606826782226562,416
6,1455472030.13313031196594238281,1455472030.13379645347595214844,408
7,1455472030.20454525947570800781,1455472030.20498323440551757812,400
8,1455472030.27302789688110351562,1455472030.27362513542175292969,400
9,1455472030.34465551376342773438,1455472030.34519052505493164062,392
10,1455472030.41346454620361328125,1455472030.41391110420227050781,384
11,1455472030.48327565193176269531,1455472030.48381757736206054688,384
12,1455472030.55382180213928222656,1455472030.5544300079345703125,384
13,1455472030.62449145317077636719,1455472030.62498140335083007812,376
14,1455472030.69385433197021484375,1455472030.69431138038635253906,376
15,1455472030.764148712158203125,1455472030.7649059295654296875,376
16,1455472030.83333635330200195312,1455472030.83381056785583496094,376
17,1455472030.90347409248352050781,1455472030.90418958663940429688,376
18,1455472030.97276186943054199219,1455472030.97325682640075683594,376
19,1455472031.0434703826904296875,1455472031.04402065277099609375,376
20,1455472031.11376953125,1455472031.11423039436340332031,376
21,1455472031.18491435050964355469,1455472031.18538308143615722656,376
22,1455472031.2536830902099609375,1455472031.25416803359985351562,376
23,1455472031.32369947433471679688,1455472031.32417082786560058594,384
24,1455472031.39370656013488769531,1455472031.39447546005249023438,384
25,1455472031.46323800086975097656,1455472031.46369338035583496094,392
26,1455472031.53339862823486328125,1455472031.53403234481811523438,392
27,1455472031.60442137718200683594,1455472031.60495114326477050781,400
28,1455472031.67333126068115234375,1455472031.67379474639892578125,408
29,1455472031.74466347694396972656,1455472031.74518465995788574219,408
30,1455472031.81281685829162597656,1455472031.81326746940612792969,416
31,1455472031.88320159912109375,1455472031.88369703292846679688,424
32,1455472031.95428943634033203125,1455472031.95481657981872558594,432
33,1455472032.02397656440734863281,1455472032.02468228340148925781,440
34,1455472032.09347081184387207031,1455472032.09393596649169921875,448
35,1455472032.16316509246826171875,1455472032.16383957862854003906,456
36,1455472032.23387479782104492188,1455472032.234325408935546875,464
37,1455472032.30489039421081542969,1455472032.30543470382690429688,472
38,1455472032.37343239784240722656,1455472032.37389087677001953125,480
39,1455472032.44445109367370605469,1455472032.4449748992919921875,488
40,1455472032.51332807540893554688,1455472032.51381564140319824219,496
41,1455472032.58307743072509765625,1455472032.5836162567138671875,504
42,1455472032.65333676338195800781,1455472032.65402841567993164062,512
43,1455472032.72290086746215820312,1455472032.72334980964660644531,520
44,1455472032.79332518577575683594,1455472032.79391837120056152344,528
45,1455472032.8651752471923828125,1455472032.86564517021179199219,536
46,1455472032.93363261222839355469,1455472032.934078216552734375,544
47,1455472033.00403118133544921875,1455472033.00451970100402832031,552
48,1455472033.07309126853942871094,1455472033.07360482215881347656,560
49,1455472033.14367532730102539062,1455472033.14424395561218261719,568
50,1455472033.21350741386413574219,1455472033.21396231651306152344,568
51,1455472033.28456211090087890625,1455472033.28518533706665039062,576
52,1455472033.35423135757446289062,1455472033.3547515869140625,584
53,1455472033.42398333549499511719,1455472033.42456841468811035156,592
54,1455472033.49325776100158691406,1455472033.49378490447998046875,592
55,1455472033.56336641311645507812,1455472033.56389832496643066406,600
56,1455472033.63371205329895019531,1455472033.63424897193908691406,600
57,1455472033.70454716682434082031,1455472033.70500922203063964844,608
58,1455472033.77340388298034667969,1455472033.77389836311340332031,608
59,1455472033.84368920326232910156,1455472033.84417009353637695312,608
60,1455472033.91324090957641601562,1455472033.91394495964050292969,608
61,1455472033.98458242416381835938,1455472033.98503446578979492188,608
62,1455472034.05452752113342285156,1455472034.05511736869812011719,608
63,1455472034.12407779693603515625,1455472034.12462377548217773438,608
64,1455472034.19357228279113769531,1455472034.19402718544006347656,608
65,1455472034.26411199569702148438,1455472034.26454210281372070312,608
66,1455472034.33270740509033203125,1455472034.33316183090209960938,608
67,1455472034.40363001823425292969,1455472034.40412664413452148438,608
68,1455472034.47272729873657226562,1455472034.47318196296691894531,600
69,1455472034.54501819610595703125,1455472034.54562854766845703125,600
70,1455472034.61361002922058105469,1455472034.61406254768371582031,592
71,1455472034.68349123001098632812,1455472034.68410801887512207031,592
72,1455472034.75456523895263671875,1455472034.75503396987915039062,584
73,1455472034.82384181022644042969,1455472034.82432699203491210938,576
74,1455472034.89426302909851074219,1455472034.89474511146545410156,576
75,1455472034.9663448333740234375,1455472034.96677446365356445312,568
76,1455472035.03392481803894042969,1455472035.03449344635009765625,560
77,1455472035.10489153861999511719,1455472035.10535669326782226562,552
78,1455472035.17360997200012207031,1455472035.17422580718994140625,544
79,1455472035.24379038810729980469,1455472035.24424862861633300781,496
80,1455472035.31337189674377441406,1455472035.31408905982971191406,504
81,1455472035.38420701026916503906,1455472035.38466882705688476562,512
82,1455472035.45358991622924804688,1455472035.45404696464538574219,520
83,1455472035.52360463142395019531,1455472035.524078369140625,528
84,1455472035.59358310699462890625,1455472035.59403896331787109375,536
85,1455472035.66473293304443359375,1455472035.66521596908569335938,544
86,1455472035.73277497291564941406,1455472035.73322224617004394531,552
87,1455472035.80497002601623535156,1455472035.80558276176452636719,560
88,1455472035.87336897850036621094,1455472035.87382102012634277344,568
89,1455472035.94340229034423828125,1455472035.94405364990234375,576
90,1455472036.01351499557495117188,1455472036.01408290863037109375,576
91,1455472036.08362460136413574219,1455472036.0840911865234375,584
92,1455472036.15462350845336914062,1455472036.1550884246826171875,592
93,1455472036.22459721565246582031,1455472036.225048065185546875,592
94,1455472036.29334473609924316406,1455472036.29383134841918945312,600
95,1455472036.36394429206848144531,1455472036.36440801620483398438,600
96,1455472036.43301939964294433594,1455472036.43363237380981445312,608
97,1455472036.50382828712463378906,1455472036.50427699089050292969,608
98,1455472036.57317972183227539062,1455472036.57390642166137695312,608
99,1455472036.64418792724609375,1455472036.644641876220703125,608
100,1455472036.71297407150268554688,1455472036.71342945098876953125,608
101,1455472036.78429341316223144531,1455472036.78483152389526367188,608
102,1455472036.85372281074523925781,1455472036.85418462753295898438,608
103,1455472036.92304229736328125,1455472036.92360210418701171875,608
104,1455472036.99294734001159667969,1455472036.99346971511840820312,608
105,1455472037.06462860107421875,1455472037.06534600257873535156,608
106,1455472037.13289999961853027344,1455472037.13336277008056640625,608
107,1455472037.20337581634521484375,1455472037.20399713516235351562,600
108,1455472037.27353382110595703125,1455472037.27398014068603515625,600
109,1455472037.34466981887817382812,1455472037.34517645835876464844,592
110,1455472037.41353368759155273438,1455472037.41400361061096191406,592
111,1455472037.483921051025390625,1455472037.48438167572021484375,584
112,1455472037.5544281005859375,1455472037.55493760108947753906,576
113,1455472037.709262847900390625,1455472037.71373605728149414062,568
114,1455472037.909290313720703125,1455472037.91005063056945800781,568
115,1455472038.05988740921020507812,1455472038.06205105781555175781,560
116,1455472038.09227991104125976562,1455472038.09275007247924804688,552
117,1455472038.11777782440185546875,1455472038.11831831932067871094,512
118,1455472038.17811703681945800781,1455472038.17866683006286621094,544
119,1455472038.23826456069946289062,1455472038.23873853683471679688,536
120,1455472038.29894399642944335938,1455472038.29951262474060058594,528
121,1455472038.3044281005859375,1455472038.30550122261047363281,504
122,1455472038.3597698211669921875,1455472038.36023211479187011719,496
123,1455472038.41830706596374511719,1455472038.41884493827819824219,488
124,1455472038.48025059700012207031,1455472038.48081278800964355469,480
125,1455472038.51119756698608398438,1455472038.51164937019348144531,520
126,1455472038.52404713630676269531,1455472038.52450037002563476562,512
127,1455472038.53745794296264648438,1455472038.53795695304870605469,472
128,1455472038.57038259506225585938,1455472038.57086110115051269531,464
129,1455472038.59891986846923828125,1455472038.59936404228210449219,464
130,1455472038.63085389137268066406,1455472038.63136410713195800781,432
131,1455472038.64558458328247070312,1455472038.64611649513244628906,504
132,1455472038.65984869003295898438,1455472038.66044831275939941406,496
133,1455472038.69106817245483398438,1455472038.69167160987854003906,488
134,1455472038.71471667289733886719,1455472038.71518683433532714844,456
135,1455472038.71869158744812011719,1455472038.71939587593078613281,424
136,1455472038.75391650199890136719,1455472038.75438642501831054688,448
137,1455472038.77795052528381347656,1455472038.77844452857971191406,416
138,1455472038.78564500808715820312,1455472038.78774380683898925781,432
139,1455472038.789630889892578125,1455472038.7915287017822265625,440
140,1455472038.81035637855529785156,1455472038.81083059310913085938,480
141,1455472038.83817791938781738281,1455472038.83875799179077148438,472
142,1455472038.85489249229431152344,1455472038.85581088066101074219,464
143,1455472038.86015653610229492188,1455472038.86067223548889160156,416
144,1455472038.87204766273498535156,1455472038.87258672714233398438,424
145,1455472038.90012049674987792969,1455472038.90058279037475585938,432
146,1455472038.92602515220642089844,1455472038.926517486572265625,408
147,1455472038.93136835098266601562,1455472038.93181467056274414062,424
148,1455472038.93576598167419433594,1455472038.9363536834716796875,424
149,1455472038.96007537841796875,1455472038.96059346199035644531,456
150,1455472038.99027323722839355469,1455472038.99094367027282714844,448
151,1455472038.99686121940612792969,1455472038.99737048149108886719,400
152,1455472039.0103244781494140625,1455472039.01092386245727539062,424
153,1455472039.01850461959838867188,1455472039.01915073394775390625,416
154,1455472039.0521297454833984375,1455472039.05260181427001953125,432
155,1455472039.06469297409057617188,1455472039.06520318984985351562,432
156,1455472039.07146239280700683594,1455472039.07200026512145996094,400
157,1455472039.07814717292785644531,1455472039.07872033119201660156,416
158,1455472039.08297133445739746094,1455472039.0834865570068359375,408
159,1455472039.09513378143310546875,1455472039.09580540657043457031,392
160,1455472039.11113500595092773438,1455472039.11159253120422363281,424
161,1455472039.13647103309631347656,1455472039.13802862167358398438,408
162,1455472039.13865876197814941406,1455472039.13913631439208984375,392
163,1455472039.16420888900756835938,1455472039.16468191146850585938,400
164,1455472039.171710968017578125,1455472039.17219376564025878906,416
165,1455472039.19993042945861816406,1455472039.20038008689880371094,408
166,1455472039.20464372634887695312,1455472039.20588946342468261719,384
167,1455472039.23016023635864257812,1455472039.23064398765563964844,400
168,1455472039.23434877395629882812,1455472039.23500013351440429688,408
169,1455472039.26009464263916015625,1455472039.260555267333984375,400
170,1455472039.27593851089477539062,1455472039.27640295028686523438,408
171,1455472039.29112553596496582031,1455472039.29157972335815429688,400
172,1455472039.30354714393615722656,1455472039.30403590202331542969,384
173,1455472039.31931543350219726562,1455472039.32123351097106933594,392
174,1455472039.34543776512145996094,1455472039.34590578079223632812,400
175,1455472039.35161685943603515625,1455472039.35229372978210449219,392
176,1455472039.37331342697143554688,1455472039.37377643585205078125,384
177,1455472039.37742662429809570312,1455472039.3780670166015625,392
178,1455472039.41422915458679199219,1455472039.41486620903015136719,384
179,1455472039.41629934310913085938,1455472039.41673827171325683594,376
180,1455472039.43908524513244628906,1455472039.43951153755187988281,392
181,1455472039.44314050674438476562,1455472039.44357347488403320312,392
182,1455472039.47073316574096679688,1455472039.47122740745544433594,384
183,1455472039.48493671417236328125,1455472039.4853839874267578125,376
184,1455472039.49845814704895019531,1455472039.49920034408569335938,384
185,1455472039.51249170303344726562,1455472039.51301598548889160156,384
186,1455472039.53772044181823730469,1455472039.53850054740905761719,384
187,1455472039.55478000640869140625,1455472039.55569362640380859375,376
188,1455472039.55959773063659667969,1455472039.56010651588439941406,384
189,1455472039.5858364105224609375,1455472039.58629941940307617188,384
190,1455472039.60584878921508789062,1455472039.60752201080322265625,376
191,1455472039.62028527259826660156,1455472039.62087750434875488281,376
192,1455472039.62697911262512207031,1455472039.6293773651123046875,376
193,1455472039.6532688140869140625,1455472039.65405106544494628906,376
194,1455472039.67921519279479980469,1455472039.679668426513671875,376
195,1455472039.6907176971435546875,1455472039.69131422042846679688,376
196,1455472039.69689202308654785156,1455472039.697338104248046875,376
197,1455472039.72314381599426269531,1455472039.72367072105407714844,376
198,1455472039.74005985260009765625,1455472039.74052715301513671875,376
199,1455472039.75310873985290527344,1455472039.75364971160888671875,376
200,1455472039.76482510566711425781,1455472039.76540851593017578125,376
201,1455472039.79499101638793945312,1455472039.79546403884887695312,376
202,1455472039.79909968376159667969,1455472039.79969906806945800781,376
203,1455472039.81653594970703125,1455472039.81702280044555664062,376
204,1455472039.83664155006408691406,1455472039.83728837966918945312,376
205,1455472039.85936856269836425781,1455472039.85982251167297363281,376
206,1455472039.86313033103942871094,1455472039.86357188224792480469,376
207,1455472039.86821198463439941406,1455472039.8708019256591796875,376
208,1455472039.88950681686401367188,1455472039.89004158973693847656,376
209,1455472039.90501046180725097656,1455472039.90598559379577636719,376
210,1455472039.919036865234375,1455472039.919589996337890625,376
211,1455472039.93325924873352050781,1455472039.93388605117797851562,376
212,1455472039.953861236572265625,1455472039.95439004898071289062,376
213,1455472039.97566676139831542969,1455472039.9764461517333984375,376
214,1455472039.97816133499145507812,1455472039.97857904434204101562,376
215,1455472040.00484728813171386719,1455472040.00588679313659667969,376
216,1455472040.01011300086975097656,1455472040.01055669784545898438,376
217,1455472040.03745055198669433594,1455472040.03798699378967285156,376
218,1455472040.04574060440063476562,1455472040.04627323150634765625,376
219,1455472040.0699825286865234375,1455472040.07044887542724609375,376
220,1455472040.07356810569763183594,1455472040.07417011260986328125,376
221,1455472040.09913945198059082031,1455472040.09960222244262695312,376
222,1455472040.11502027511596679688,1455472040.11562299728393554688,376
223,1455472040.13178014755249023438,1455472040.13230156898498535156,376
224,1455472040.14446663856506347656,1455472040.14492249488830566406,384
225,1455472040.16071343421936035156,1455472040.16118097305297851562,376
226,1455472040.18497467041015625,1455472040.18546199798583984375,376
227,1455472040.19034028053283691406,1455472040.19090771675109863281,376
228,1455472040.21339178085327148438,1455472040.21385121345520019531,384
229,1455472040.21733236312866210938,1455472040.21805167198181152344,376
230,1455472040.25157666206359863281,1455472040.25205111503601074219,376
231,1455472040.259490966796875,1455472040.26008248329162597656,384
232,1455472040.27779173851013183594,1455472040.27833461761474609375,376
233,1455472040.28324437141418457031,1455472040.28376054763793945312,376
234,1455472040.31185150146484375,1455472040.31233549118041992188,384
235,1455472040.32572770118713378906,1455472040.32625699043273925781,392
236,1455472040.33811712265014648438,1455472040.33856463432312011719,376
237,1455472040.35483098030090332031,1455472040.35575962066650390625,384
238,1455472040.37066721916198730469,1455472040.37128901481628417969,384
239,1455472040.39532613754272460938,1455472040.39584469795227050781,392
240,1455472040.39904689788818359375,1455472040.39967679977416992188,384
241,1455472040.42375540733337402344,1455472040.42429494857788085938,384
242,1455472040.43057298660278320312,1455472040.43110013008117675781,400
243,1455472040.45987105369567871094,1455472040.46039438247680664062,392
244,1455472040.46551918983459472656,1455472040.46594119071960449219,384
245,1455472040.48998665809631347656,1455472040.49048089981079101562,384
246,1455472040.49330949783325195312,1455472040.49383187294006347656,408
247,1455472040.51850938796997070312,1455472040.51926136016845703125,392
248,1455472040.53494858741760253906,1455472040.53541326522827148438,392
249,1455472040.55275607109069824219,1455472040.55340695381164550781,392
250,1455472040.56305599212646484375,1455472040.56352066993713378906,408
251,1455472040.57756972312927246094,1455472040.57920217514038085938,400
252,1455472040.60516095161437988281,1455472040.60563516616821289062,392
253,1455472040.6119976043701171875,1455472040.61246633529663085938,392
254,1455472040.63356828689575195312,1455472040.63410472869873046875,416
255,1455472040.63866257667541503906,1455472040.63909244537353515625,400
256,1455472040.67067837715148925781,1455472040.67134976387023925781,400
257,1455472040.67677283287048339844,1455472040.67707180976867675781,424
258,1455472040.69881558418273925781,1455472040.69950699806213378906,400
259,1455472040.70480799674987792969,1455472040.70587682723999023438,400
260,1455472040.73037123680114746094,1455472040.73081612586975097656,408
261,1455472040.74585008621215820312,1455472040.74630832672119140625,424
262,1455472040.75975441932678222656,1455472040.76022291183471679688,408
263,1455472040.77542281150817871094,1455472040.77593088150024414062,408
264,1455472040.79068613052368164062,1455472040.79113626480102539062,416
265,1455472040.81644773483276367188,1455472040.81812071800231933594,432
266,1455472040.81880736351013183594,1455472040.81918883323669433594,416
267,1455472040.8444385528564453125,1455472040.84518408775329589844,416
268,1455472040.85332894325256347656,1455472040.85377144813537597656,440
269,1455472040.87833809852600097656,1455472040.87881946563720703125,424
270,1455472040.88651800155639648438,1455472040.88820624351501464844,416
271,1455472040.91112804412841796875,1455472040.91179776191711425781,416
272,1455472040.91562414169311523438,1455472040.91610741615295410156,448
273,1455472040.93882155418395996094,1455472040.93927478790283203125,432
274,1455472040.95604181289672851562,1455472040.958179473876953125,424
275,1455472040.97098374366760253906,1455472040.97145724296569824219,424
276,1455472040.98272347450256347656,1455472040.983306884765625,456
277,1455472041.00013256072998046875,1455472041.00059676170349121094,440
278,1455472041.02732801437377929688,1455472041.02781987190246582031,432
279,1455472041.03211259841918945312,1455472041.03260564804077148438,432
