id, time (s), size (bits)
0,1455472029.51337957382202148438,448
1,1455472029.59319424629211425781,440
2,1455472029.67461371421813964844,432
3,1455472029.75287222862243652344,424
4,1455472029.83381128311157226562,416
5,1455472029.91400814056396484375,408
6,1455472029.99341535568237304688,400
7,1455472030.07294487953186035156,392
8,1455472030.15434670448303222656,392
9,1455472030.23390936851501464844,384
10,1455472030.31269979476928710938,384
11,1455472030.393520355224609375,376
12,1455472030.47344446182250976562,376
13,1455472030.55414795875549316406,376
14,1455472030.63432192802429199219,376
15,1455472030.71294474601745605469,376
16,1455472030.79296970367431640625,376
17,1455472030.87432885169982910156,376
18,1455472030.95279836654663085938,376
19,1455472031.03386402130126953125,376
20,1455472031.11460423469543457031,384
21,1455472031.19284939765930175781,384
22,1455472031.27339792251586914062,392
23,1455472031.3536205291748046875,392
24,1455472031.43490338325500488281,400
25,1455472031.5131435394287109375,408
26,1455472031.59380269050598144531,416
27,1455472031.67418575286865234375,424
28,1455472031.75353074073791503906,432
29,1455472031.834377288818359375,440
30,1455472031.91312050819396972656,448
31,1455472031.99264073371887207031,456
32,1455472032.07427048683166503906,464
33,1455472032.15330481529235839844,480
34,1455472032.23451685905456542969,488
35,1455472032.31396913528442382812,496
36,1455472032.39352941513061523438,504
37,1455472032.47287249565124511719,512
38,1455472032.55380296707153320312,528
39,1455472032.6334095001220703125,536
40,1455472032.71299004554748535156,544
41,1455472032.79471302032470703125,552
42,1455472032.87333846092224121094,560
43,1455472032.95282125473022460938,568
44,1455472033.03461480140686035156,576
45,1455472033.113140106201171875,584
46,1455472033.19322848320007324219,584
47,1455472033.27381682395935058594,592
48,1455472033.35371685028076171875,600
49,1455472033.4348926544189453125,600
50,1455472033.51393723487854003906,608
51,1455472033.59298491477966308594,608
52,1455472033.67251825332641601562,608
53,1455472033.75400233268737792969,608
54,1455472033.83376622200012207031,608
55,1455472033.91416597366333007812,608
56,1455472033.99345302581787109375,608
57,1455472034.07303500175476074219,608
58,1455472034.15317654609680175781,608
59,1455472034.23412609100341796875,600
60,1455472034.31317305564880371094,600
61,1455472034.39347767829895019531,592
62,1455472034.47460603713989257812,592
63,1455472034.55304813385009765625,584
64,1455472034.63487100601196289062,576
65,1455472034.71325278282165527344,568
66,1455472034.79337859153747558594,560
67,1455472034.87300252914428710938,552
68,1455472034.95392274856567382812,544
69,1455472035.03451514244079589844,496
70,1455472035.11322164535522460938,504
71,1455472035.19359374046325683594,512
72,1455472035.27266001701354980469,528
73,1455472035.35300087928771972656,536
74,1455472035.43436837196350097656,544
75,1455472035.51317930221557617188,552
76,1455472035.59433889389038085938,560
77,1455472035.67335772514343261719,568
78,1455472035.752925872802734375,576
79,1455472035.83390378952026367188,584
80,1455472035.91364908218383789062,584
81,1455472035.99299216270446777344,592
82,1455472036.07286667823791503906,600
83,1455472036.154232025146484375,600
84,1455472036.23383617401123046875,608
85,1455472036.31344580650329589844,608
86,1455472036.39404654502868652344,608
87,1455472036.47284102439880371094,608
88,1455472036.5527286529541015625,608
89,1455472036.63414764404296875,608
90,1455472036.71384119987487792969,608
91,1455472036.79351377487182617188,608
92,1455472036.87349629402160644531,608
93,1455472036.95277500152587890625,600
94,1455472037.03340172767639160156,600
95,1455472037.11381554603576660156,592
96,1455472037.193126678466796875,592
97,1455472037.27440762519836425781,584
98,1455472037.35412693023681640625,576
99,1455472037.43389725685119628906,568
100,1455472037.51332926750183105469,560
101,1455472037.594554901123046875,552
102,1455472037.67266201972961425781,544
103,1455472037.75254678726196289062,536
104,1455472037.83537244796752929688,528
105,1455472037.91243195533752441406,520
106,1455472037.99346494674682617188,512
107,1455472038.07436466217041015625,504
108,1455472038.15305662155151367188,488
109,1455472038.23398184776306152344,480
110,1455472038.3146724700927734375,472
111,1455472038.39431405067443847656,464
112,1455472038.47334742546081542969,456
113,1455472038.55361509323120117188,440
114,1455472038.69380164146423339844,432
115,1455472038.71356296539306640625,424
116,1455472038.79388499259948730469,416
117,1455472038.87321829795837402344,408
118,1455472038.95503330230712890625,408
119,1455472039.03386354446411132812,400
120,1455472039.11334443092346191406,392
121,1455472039.19316625595092773438,384
122,1455472039.27384018898010253906,384
123,1455472039.3524608612060546875,376
124,1455472039.43337011337280273438,376
125,1455472039.5153102874755859375,376
126,1455472039.59331989288330078125,376
127,1455472039.672847747802734375,376
128,1455472039.75400209426879882812,376
129,1455472039.83491849899291992188,376
130,1455472039.91288900375366210938,376
131,1455472039.99373507499694824219,376
132,1455472040.07388710975646972656,376
133,1455472040.15322375297546386719,384
134,1455472040.23422479629516601562,384
135,1455472040.31294655799865722656,392
136,1455472040.39273428916931152344,400
137,1455472040.47350573539733886719,408
138,1455472040.55315804481506347656,408
139,1455472040.63449716567993164062,416
140,1455472040.71431016921997070312,424
141,1455472040.79245877265930175781,432
142,1455472040.87291312217712402344,448
143,1455472040.95386648178100585938,456
144,1455472041.03342747688293457031,464
145,1455472041.11317706108093261719,472
146,1455472041.19474005699157714844,480
147,1455472041.2725582122802734375,488
148,1455472041.35324907302856445312,504
149,1455472041.434833526611328125,512
150,1455472041.51336526870727539062,520
151,1455472041.59301352500915527344,528
152,1455472041.67374348640441894531,536
153,1455472041.75415539741516113281,544
154,1455472041.83383989334106445312,552
155,1455472041.91360116004943847656,560
156,1455472041.992870330810546875,568
157,1455472042.07320094108581542969,576
158,1455472042.15361452102661132812,584
159,1455472042.23337483406066894531,592
160,1455472042.31439304351806640625,592
161,1455472042.393283843994140625,600
162,1455472042.47301125526428222656,600
163,1455472042.55286502838134765625,608
164,1455472042.63443136215209960938,608
165,1455472042.71286630630493164062,608
166,1455472042.79255318641662597656,608
167,1455472042.87522554397583007812,608
168,1455472042.95294165611267089844,608
169,1455472043.0335540771484375,608
170,1455472043.11402654647827148438,608
171,1455472043.19320964813232421875,608
172,1455472043.27352166175842285156,600
173,1455472043.35436868667602539062,600
174,1455472043.43398690223693847656,592
175,1455472043.51324176788330078125,584
176,1455472043.59324502944946289062,584
177,1455472043.67248082160949707031,576
178,1455472043.753143310546875,568
179,1455472043.83454346656799316406,560
180,1455472043.91302847862243652344,552
181,1455472043.99431824684143066406,544
182,1455472044.073833465576171875,504
183,1455472044.15317130088806152344,512
184,1455472044.23332524299621582031,520
185,1455472044.31383109092712402344,528
186,1455472044.39265012741088867188,536
187,1455472044.4729595184326171875,544
188,1455472044.55492997169494628906,552
189,1455472044.63383698463439941406,560
190,1455472044.71325826644897460938,568
191,1455472044.79404044151306152344,576
192,1455472044.87312364578247070312,584
193,1455472044.95449566841125488281,592
194,1455472045.03467464447021484375,592
195,1455472045.11413550376892089844,600
196,1455472045.19330692291259765625,600
197,1455472045.2734699249267578125,608
198,1455472045.35319018363952636719,608
199,1455472045.43367815017700195312,608
200,1455472045.51377439498901367188,608
201,1455472045.5933971405029296875,608
202,1455472045.67514586448669433594,608
203,1455472045.75401449203491210938,608
204,1455472045.83320879936218261719,608
205,1455472045.9133968353271484375,608
206,1455472045.99455022811889648438,600
207,1455472046.07274293899536132812,600
208,1455472046.15302205085754394531,592
209,1455472046.23555779457092285156,584
210,1455472046.31300067901611328125,584
211,1455472046.39331412315368652344,576
212,1455472046.47332787513732910156,568
213,1455472046.55245137214660644531,560
214,1455472046.63384461402893066406,552
215,1455472046.7142620086669921875,544
216,1455472046.79597735404968261719,536
217,1455472046.87381315231323242188,520
218,1455472046.95397210121154785156,512
219,1455472047.03352427482604980469,504
220,1455472047.11333298683166503906,496
221,1455472047.19547486305236816406,488
222,1455472047.27299547195434570312,480
223,1455472047.35362505912780761719,464
224,1455472047.43419909477233886719,456
225,1455472047.51288437843322753906,448
226,1455472047.59311318397521972656,440
227,1455472047.67381191253662109375,432
228,1455472047.75337362289428710938,424
229,1455472047.83323264122009277344,416
230,1455472047.914455413818359375,408
231,1455472047.99265336990356445312,400
232,1455472048.07286977767944335938,392
233,1455472048.15413689613342285156,392
234,1455472048.23395633697509765625,384
235,1455472048.31285119056701660156,384
236,1455472048.39391446113586425781,376
237,1455472048.47413372993469238281,376
238,1455472048.55328130722045898438,376
239,1455472048.63388133049011230469,376
240,1455472048.713588714599609375,376
241,1455472048.79344868659973144531,376
242,1455472048.87330961227416992188,376
243,1455472048.95304346084594726562,376
244,1455472049.03409337997436523438,376
245,1455472049.11379408836364746094,384
246,1455472049.19332098960876464844,384
247,1455472049.27332711219787597656,392
248,1455472049.35376286506652832031,392
249,1455472049.43337988853454589844,400
250,1455472049.51338911056518554688,408
251,1455472049.59442543983459472656,416
252,1455472049.67270708084106445312,424
253,1455472049.75334692001342773438,432
254,1455472049.83483839035034179688,440
255,1455472049.91272878646850585938,448
256,1455472049.99324655532836914062,456
257,1455472050.07369160652160644531,464
258,1455472050.15443515777587890625,480
259,1455472050.23321986198425292969,488
260,1455472050.31418013572692871094,496
261,1455472050.39255928993225097656,504
262,1455472050.47297024726867675781,512
263,1455472050.55372595787048339844,528
264,1455472050.634944915771484375,536
265,1455472050.71412682533264160156,544
266,1455472050.79421758651733398438,552
267,1455472050.87284612655639648438,560
268,1455472050.95301795005798339844,568
269,1455472051.03425312042236328125,576
270,1455472051.11315011978149414062,584
271,1455472051.19303274154663085938,584
272,1455472051.27413463592529296875,592
273,1455472051.35297417640686035156,600
274,1455472051.43333101272583007812,600
275,1455472051.51402592658996582031,608
276,1455472051.59257364273071289062,608
277,1455472051.67327117919921875,608
278,1455472051.75375652313232421875,608
279,1455472051.83444309234619140625,608
280,1455472051.91311717033386230469,608
281,1455472051.9951114654541015625,608
282,1455472052.07312488555908203125,608
283,1455472052.1525516510009765625,608
284,1455472052.2342205047607421875,600
285,1455472052.31344461441040039062,600
286,1455472052.39407467842102050781,592
287,1455472052.47396874427795410156,592
288,1455472052.55342030525207519531,584
289,1455472052.63371586799621582031,576
290,1455472052.71414637565612792969,568
291,1455472052.79248738288879394531,560
292,1455472052.87298917770385742188,552
293,1455472052.95534062385559082031,544
294,1455472053.03366947174072265625,496
295,1455472053.11336064338684082031,504
296,1455472053.19366788864135742188,512
297,1455472053.27325224876403808594,528
298,1455472053.35331559181213378906,536
299,1455472053.43455958366394042969,544
300,1455472053.51404404640197753906,552
301,1455472053.59274411201477050781,560
302,1455472053.67369556427001953125,568
303,1455472053.75251150131225585938,576
304,1455472053.83334231376647949219,584
305,1455472053.91367673873901367188,584
306,1455472053.99428224563598632812,592
307,1455472054.07411074638366699219,600
308,1455472054.15365481376647949219,600
309,1455472054.23328185081481933594,608
310,1455472054.31397581100463867188,608
311,1455472054.39419865608215332031,608
312,1455472054.47275471687316894531,608
313,1455472054.55323839187622070312,608
314,1455472054.63487529754638671875,608
315,1455472054.71270513534545898438,608
316,1455472054.79289531707763671875,608
317,1455472054.87510800361633300781,608
318,1455472054.95309567451477050781,600
319,1455472055.03454256057739257812,600
320,1455472055.11427783966064453125,592
321,1455472055.19412660598754882812,592
322,1455472055.27339100837707519531,584
323,1455472055.35367369651794433594,576
324,1455472055.43391060829162597656,568
325,1455472055.51255655288696289062,560
326,1455472055.59404158592224121094,552
327,1455472055.67334079742431640625,544
328,1455472055.75358939170837402344,536
329,1455472055.83413171768188476562,528
330,1455472055.91343641281127929688,520
331,1455472055.99292635917663574219,512
332,1455472056.07324337959289550781,504
333,1455472056.1527996063232421875,488
334,1455472056.23481392860412597656,480
335,1455472056.31528234481811523438,472
336,1455472056.39306592941284179688,464
337,1455472056.47278952598571777344,456
338,1455472056.5542583465576171875,440
339,1455472056.6340656280517578125,432
340,1455472056.71307849884033203125,424
341,1455472056.79346227645874023438,416
342,1455472056.8740234375,408
343,1455472056.95303249359130859375,408
344,1455472057.03473973274230957031,400
345,1455472057.11322951316833496094,392
346,1455472057.19436311721801757812,384
347,1455472057.27400422096252441406,384
348,1455472057.35271787643432617188,376
349,1455472057.43388772010803222656,376
350,1455472057.51393747329711914062,376
351,1455472057.59315800666809082031,376
352,1455472057.67266893386840820312,376
353,1455472057.75394892692565917969,376
354,1455472057.83340764045715332031,376
355,1455472057.91347217559814453125,376
356,1455472057.99464321136474609375,376
357,1455472058.07303762435913085938,376
358,1455472058.15248012542724609375,384
359,1455472058.23431944847106933594,384
360,1455472058.31273198127746582031,392
361,1455472058.39317727088928222656,400
362,1455472058.47401189804077148438,408
363,1455472058.55362987518310546875,416
364,1455472058.6337642669677734375,416
365,1455472058.71344804763793945312,424
366,1455472058.79256439208984375,432
367,1455472058.87303638458251953125,448
368,1455472058.95382618904113769531,456
369,1455472059.03339123725891113281,464
370,1455472059.11412596702575683594,472
371,1455472059.19412875175476074219,480
372,1455472059.27284359931945800781,488
373,1455472059.35331583023071289062,504
374,1455472059.43438744544982910156,512
375,1455472059.51311659812927246094,520
376,1455472059.59310173988342285156,528
377,1455472059.67458510398864746094,536
378,1455472059.75326037406921386719,544
379,1455472059.83371758460998535156,552
380,1455472059.913818359375,560
381,1455472059.99283552169799804688,568
382,1455472060.0725116729736328125,576
383,1455472060.1542682647705078125,584
384,1455472060.23451590538024902344,592
385,1455472060.312480926513671875,592
386,1455472060.39326047897338867188,600
387,1455472060.47290945053100585938,600
388,1455472060.55256772041320800781,608
389,1455472060.634052276611328125,608
390,1455472060.71267747879028320312,608
391,1455472060.79440641403198242188,608
392,1455472060.87387967109680175781,608
393,1455472060.95339608192443847656,608
394,1455472061.03507900238037109375,608
395,1455472061.11335086822509765625,608
396,1455472061.19331526756286621094,608
397,1455472061.27277302742004394531,600
398,1455472061.35494065284729003906,600
399,1455472061.433868408203125,592
400,1455472061.51245927810668945312,584
401,1455472061.59369754791259765625,584
402,1455472061.67353200912475585938,576
403,1455472061.75307989120483398438,568
404,1455472061.83451128005981445312,560
405,1455472061.91409182548522949219,552
406,1455472061.99290871620178222656,544
407,1455472062.07436513900756835938,504
408,1455472062.15314579010009765625,512
409,1455472062.23388719558715820312,520
410,1455472062.31338715553283691406,528
411,1455472062.39292693138122558594,536
412,1455472062.47422814369201660156,544
413,1455472062.55331397056579589844,552
414,1455472062.63365697860717773438,560
415,1455472062.71319913864135742188,568
416,1455472062.793975830078125,576
417,1455472062.87247157096862792969,584
418,1455472062.95324659347534179688,592
419,1455472063.03546619415283203125,592
420,1455472063.11295580863952636719,600
421,1455472063.19264149665832519531,600
422,1455472063.2740421295166015625,608
423,1455472063.35320997238159179688,608
424,1455472063.43387079238891601562,608
425,1455472063.51374912261962890625,608
426,1455472063.59516119956970214844,608
427,1455472063.67289996147155761719,608
428,1455472063.75379228591918945312,608
429,1455472063.83384156227111816406,608
430,1455472063.91293811798095703125,608
431,1455472063.9946117401123046875,600
432,1455472064.07352042198181152344,600
433,1455472064.15406680107116699219,592
434,1455472064.23410272598266601562,584
435,1455472064.31310033798217773438,584
436,1455472064.39319777488708496094,576
437,1455472064.4738903045654296875,568
438,1455472064.5530567169189453125,560
439,1455472064.63441061973571777344,552
440,1455472064.71469044685363769531,544
441,1455472064.79320883750915527344,536
442,1455472064.8734722137451171875,520
443,1455472064.95412611961364746094,512
444,1455472065.03482937812805175781,504
445,1455472065.11367821693420410156,496
446,1455472065.19362521171569824219,488
447,1455472065.27417731285095214844,480
448,1455472065.352466583251953125,464
449,1455472065.43474578857421875,456
450,1455472065.51344180107116699219,448
451,1455472065.59324026107788085938,440
452,1455472065.67369127273559570312,432
453,1455472065.75315451622009277344,424
454,1455472065.83488988876342773438,416
455,1455472065.91362690925598144531,408
456,1455472065.99318194389343261719,400
457,1455472066.07332849502563476562,392
458,1455472066.15378808975219726562,392
459,1455472066.23364996910095214844,384
460,1455472066.31367564201354980469,384
461,1455472066.39523100852966308594,376
462,1455472066.47295880317687988281,376
463,1455472066.55277252197265625,376
464,1455472066.63453269004821777344,376
465,1455472066.71305394172668457031,376
466,1455472066.79331183433532714844,376
467,1455472066.87361764907836914062,376
468,1455472066.953441619873046875,376
469,1455472067.03358173370361328125,376
470,1455472067.11357402801513671875,384
471,1455472067.19268345832824707031,384
472,1455472067.2731761932373046875,392
473,1455472067.3537693023681640625,392
474,1455472067.43335652351379394531,400
475,1455472067.51449179649353027344,408
476,1455472067.59413456916809082031,416
477,1455472067.67280340194702148438,424
478,1455472067.75295424461364746094,432
479,1455472067.83439159393310546875,440
480,1455472067.9130115509033203125,448
481,1455472067.99258899688720703125,456
482,1455472068.07441830635070800781,464
483,1455472068.15326189994812011719,480
484,1455472068.23379850387573242188,488
485,1455472068.31426000595092773438,496
486,1455472068.39336133003234863281,504
487,1455472068.47287321090698242188,512
488,1455472068.553741455078125,528
489,1455472068.79913187026977539062,552
490,1455472068.80523633956909179688,552
491,1455472068.88038992881774902344,560
492,1455472068.96062374114990234375,568
493,1455472069.04027843475341796875,576
494,1455472069.12128210067749023438,584
495,1455472069.20179867744445800781,584
496,1455472069.28113651275634765625,592
497,1455472069.36141133308410644531,600
498,1455472069.44049572944641113281,600
499,1455472069.5208415985107421875,608
500,1455472069.60133814811706542969,608
501,1455472069.68116688728332519531,608
502,1455472069.76144838333129882812,608
503,1455472069.84065079689025878906,608
504,1455472069.921245574951171875,608
