id, time (s), size (bits)
0,1455472038.67814326286315917969,432
1,1455472038.74794268608093261719,424
2,1455472038.81734561920166015625,416
3,1455472038.88831162452697753906,408
4,1455472038.95869040489196777344,408
5,1455472039.02928781509399414062,400
6,1455472039.09814047813415527344,392
7,1455472039.16764307022094726562,392
8,1455472039.23790764808654785156,384
9,1455472039.31064939498901367188,384
10,1455472039.37739920616149902344,376
11,1455472039.44842743873596191406,376
12,1455472039.51732850074768066406,376
13,1455472039.58926248550415039062,376
14,1455472039.6587371826171875,376
15,1455472039.72840762138366699219,376
16,1455472039.79735636711120605469,376
17,1455472039.86839914321899414062,376
18,1455472039.93905401229858398438,376
19,1455472040.01026463508605957031,376
20,1455472040.07762479782104492188,376
21,1455472040.14762520790100097656,384
22,1455472040.21757054328918457031,384
23,1455472040.28842401504516601562,392
24,1455472040.36159443855285644531,400
25,1455472040.42736935615539550781,400
26,1455472040.49745726585388183594,408
27,1455472040.56763982772827148438,416
28,1455472040.63828492164611816406,416
29,1455472040.709415435791015625,424
30,1455472040.77779030799865722656,432
31,1455472040.84821462631225585938,440
32,1455472040.91806960105895996094,448
33,1455472040.98810648918151855469,456
34,1455472041.06071901321411132812,464
35,1455472041.12847042083740234375,472
36,1455472041.19841217994689941406,480
37,1455472041.26737737655639648438,488
38,1455472041.33757090568542480469,496
39,1455472041.41002249717712402344,504
40,1455472041.477752685546875,512
41,1455472041.54932570457458496094,520
42,1455472041.61728596687316894531,528
43,1455472041.68738603591918945312,536
44,1455472041.75818467140197753906,544
45,1455472041.82817149162292480469,552
46,1455472041.89802575111389160156,560
47,1455472041.96870493888854980469,568
48,1455472042.03767037391662597656,576
49,1455472042.11030268669128417969,584
50,1455472042.17809844017028808594,584
51,1455472042.24810314178466796875,592
52,1455472042.31829380989074707031,592
53,1455472042.38878345489501953125,600
54,1455472042.45974016189575195312,600
55,1455472042.52780938148498535156,608
56,1455472042.59793066978454589844,608
57,1455472042.66775918006896972656,608
58,1455472042.73852682113647460938,608
59,1455472042.81142282485961914062,608
60,1455472042.87830781936645507812,608
61,1455472042.94818639755249023438,608
62,1455472043.01780152320861816406,608
63,1455472043.08875870704650878906,608
64,1455472043.15937757492065429688,608
65,1455472043.22893643379211425781,600
66,1455472043.2978668212890625,600
67,1455472043.36823749542236328125,600
68,1455472043.43729758262634277344,592
69,1455472043.51022934913635253906,584
70,1455472043.57785749435424804688,584
71,1455472043.64847040176391601562,576
72,1455472043.7182636260986328125,568
73,1455472043.78738927841186523438,560
74,1455472043.85857081413269042969,560
75,1455472043.92724752426147460938,552
76,1455472043.99836063385009765625,544
77,1455472044.06831955909729003906,504
78,1455472044.13758420944213867188,512
79,1455472044.21026754379272460938,520
80,1455472044.27748727798461914062,528
81,1455472044.34735560417175292969,536
82,1455472044.41811490058898925781,544
83,1455472044.4891376495361328125,552
84,1455472044.55864930152893066406,552
85,1455472044.62828016281127929688,560
86,1455472044.69817352294921875,568
87,1455472044.76813340187072753906,576
88,1455472044.83793520927429199219,584
89,1455472044.90906119346618652344,584
90,1455472044.97798514366149902344,592
91,1455472045.04737901687622070312,592
92,1455472045.11778378486633300781,600
93,1455472045.18759489059448242188,600
94,1455472045.2589588165283203125,608
95,1455472045.33023023605346679688,608
96,1455472045.39803957939147949219,608
97,1455472045.46767663955688476562,608
98,1455472045.53756785392761230469,608
99,1455472045.6098728179931640625,608
100,1455472045.67789101600646972656,608
101,1455472045.74829697608947753906,608
102,1455472045.81744813919067382812,608
103,1455472045.89009451866149902344,608
104,1455472045.95794343948364257812,600
105,1455472046.02810430526733398438,600
106,1455472046.10113120079040527344,592
107,1455472046.175273895263671875,592
108,1455472046.23802208900451660156,584
109,1455472046.30893349647521972656,584
110,1455472046.37792515754699707031,576
111,1455472046.448535919189453125,568
112,1455472046.5174808502197265625,560
113,1455472046.58833599090576171875,552
114,1455472046.65883851051330566406,544
115,1455472046.72917199134826660156,544
116,1455472046.79812955856323242188,536
117,1455472046.86789631843566894531,528
118,1455472046.93790912628173828125,520
119,1455472047.01001238822937011719,504
120,1455472047.07735323905944824219,496
121,1455472047.14729547500610351562,488
122,1455472047.21768307685852050781,480
123,1455472047.28789830207824707031,472
124,1455472047.35971713066101074219,464
125,1455472047.42886257171630859375,456
126,1455472047.49786853790283203125,448
127,1455472047.56804728507995605469,440
128,1455472047.637950897216796875,432
129,1455472047.70840668678283691406,424
130,1455472047.77767276763916015625,424
131,1455472047.84890913963317871094,416
132,1455472047.91772437095642089844,408
133,1455472047.98814535140991210938,400
134,1455472048.05887269973754882812,400
135,1455472048.12834453582763671875,392
136,1455472048.19835352897644042969,384
137,1455472048.26919579505920410156,384
138,1455472048.33936095237731933594,384
139,1455472048.41021394729614257812,376
140,1455472048.47732448577880859375,376
141,1455472048.54764008522033691406,376
142,1455472048.61995100975036621094,376
143,1455472048.68931913375854492188,376
144,1455472048.75888895988464355469,376
145,1455472048.82801508903503417969,376
146,1455472048.89830112457275390625,376
147,1455472048.96775126457214355469,376
148,1455472049.03799343109130859375,376
149,1455472049.10988259315490722656,384
150,1455472049.1782817840576171875,384
151,1455472049.24787950515747070312,392
152,1455472049.3180637359619140625,392
153,1455472049.38801336288452148438,400
154,1455472049.45948696136474609375,400
155,1455472049.52926111221313476562,408
156,1455472049.59760165214538574219,416
157,1455472049.66818761825561523438,424
158,1455472049.73729181289672851562,432
159,1455472049.81061029434204101562,440
160,1455472049.87781023979187011719,448
161,1455472049.94918751716613769531,456
162,1455472050.01847720146179199219,464
163,1455472050.08797240257263183594,472
164,1455472050.158557891845703125,480
165,1455472050.22783350944519042969,488
166,1455472050.29753041267395019531,496
167,1455472050.36919498443603515625,504
168,1455472050.43774867057800292969,512
169,1455472050.50959134101867675781,520
170,1455472050.57832002639770507812,528
171,1455472050.64785599708557128906,536
172,1455472050.71827816963195800781,544
173,1455472050.78926348686218261719,552
174,1455472050.85854744911193847656,560
175,1455472050.92774701118469238281,568
176,1455472050.997936248779296875,568
177,1455472051.06804752349853515625,576
178,1455472051.13809800148010253906,584
179,1455472051.21109914779663085938,592
180,1455472051.27812314033508300781,592
181,1455472051.34770965576171875,600
182,1455472051.4181728363037109375,600
183,1455472051.48818731307983398438,608
184,1455472051.56011152267456054688,608
185,1455472051.62857866287231445312,608
186,1455472051.69843578338623046875,608
187,1455472051.76788401603698730469,608
188,1455472051.83826279640197753906,608
189,1455472051.909603118896484375,608
190,1455472051.97732377052307128906,608
191,1455472052.04906415939331054688,608
192,1455472052.1173038482666015625,608
193,1455472052.18822145462036132812,608
194,1455472052.25908374786376953125,600
195,1455472052.32769036293029785156,600
196,1455472052.3977813720703125,592
197,1455472052.46910452842712402344,592
198,1455472052.53821253776550292969,584
199,1455472052.60828042030334472656,576
200,1455472052.67756152153015136719,576
201,1455472052.74806571006774902344,568
202,1455472052.81770181655883789062,560
203,1455472052.88910317420959472656,552
204,1455472052.95848417282104492188,544
205,1455472053.02831411361694335938,496
206,1455472053.09791040420532226562,504
207,1455472053.16836380958557128906,512
208,1455472053.23786592483520507812,520
209,1455472053.30909299850463867188,528
210,1455472053.37819170951843261719,536
211,1455472053.44831824302673339844,544
212,1455472053.51733565330505371094,552
213,1455472053.58786630630493164062,560
214,1455472053.66068959236145019531,568
215,1455472053.72929501533508300781,568
216,1455472053.7972087860107421875,576
217,1455472053.86731982231140136719,584
218,1455472053.93752527236938476562,592
219,1455472054.00917530059814453125,592
220,1455472054.07739043235778808594,600
221,1455472054.14854693412780761719,600
222,1455472054.21759533882141113281,608
223,1455472054.28866076469421386719,608
224,1455472054.35829687118530273438,608
225,1455472054.42766165733337402344,608
226,1455472054.49786782264709472656,608
227,1455472054.56882977485656738281,608
228,1455472054.63746333122253417969,608
229,1455472054.7083606719970703125,608
230,1455472054.7773590087890625,608
231,1455472054.84792542457580566406,608
232,1455472054.91765475273132324219,608
233,1455472054.98887419700622558594,600
234,1455472055.05951476097106933594,600
235,1455472055.12802910804748535156,592
236,1455472055.19792318344116210938,592
237,1455472055.26838564872741699219,584
238,1455472055.33734798431396484375,576
239,1455472055.40970110893249511719,576
240,1455472055.47818160057067871094,568
241,1455472055.54781460762023925781,560
242,1455472055.61742496490478515625,552
243,1455472055.68804574012756347656,544
244,1455472055.75853323936462402344,536
245,1455472055.82897901535034179688,528
246,1455472055.89810132980346679688,520
247,1455472055.968067169189453125,512
248,1455472056.03839087486267089844,504
249,1455472056.108753204345703125,496
250,1455472056.17774200439453125,488
251,1455472056.24876260757446289062,480
252,1455472056.31813073158264160156,472
253,1455472056.3875637054443359375,464
254,1455472056.45964097976684570312,456
255,1455472056.52773213386535644531,448
256,1455472056.59742760658264160156,440
257,1455472056.66886115074157714844,432
258,1455472056.73872685432434082031,424
259,1455472056.80905890464782714844,416
260,1455472056.87817120552062988281,408
261,1455472056.94742989540100097656,408
262,1455472057.01867961883544921875,400
263,1455472057.08843851089477539062,392
264,1455472057.15881085395812988281,392
265,1455472057.22820425033569335938,384
266,1455472057.29748106002807617188,384
267,1455472057.36733412742614746094,376
268,1455472057.43768048286437988281,376
269,1455472057.50947356224060058594,376
270,1455472057.57824015617370605469,376
271,1455472057.64754772186279296875,376
272,1455472057.71925377845764160156,376
273,1455472057.78732919692993164062,376
274,1455472057.85860109329223632812,376
275,1455472057.92931485176086425781,376
276,1455472057.99792027473449707031,376
277,1455472058.06725049018859863281,376
278,1455472058.13779163360595703125,384
279,1455472058.20966386795043945312,384
280,1455472058.27778172492980957031,392
281,1455472058.34872412681579589844,392
282,1455472058.41805267333984375,400
283,1455472058.48727250099182128906,408
284,1455472058.55901002883911132812,416
285,1455472058.62824964523315429688,416
286,1455472058.69780874252319335938,424
287,1455472058.76897120475769042969,432
288,1455472058.83786225318908691406,440
289,1455472058.91040563583374023438,448
290,1455472058.97765111923217773438,456
291,1455472059.04728960990905761719,464
292,1455472059.11765789985656738281,472
293,1455472059.18943953514099121094,480
294,1455472059.25886392593383789062,488
295,1455472059.32781362533569335938,496
296,1455472059.39786458015441894531,504
297,1455472059.46824669837951660156,512
298,1455472059.5380077362060546875,520
299,1455472059.61107945442199707031,528
300,1455472059.67793226242065429688,536
301,1455472059.74728274345397949219,544
302,1455472059.81723356246948242188,552
303,1455472059.88740324974060058594,560
304,1455472059.95810627937316894531,568
305,1455472060.02863192558288574219,576
306,1455472060.09806513786315917969,576
307,1455472060.16781711578369140625,584
308,1455472060.23794436454772949219,592
309,1455472060.30874896049499511719,592
310,1455472060.37790393829345703125,600
311,1455472060.44884562492370605469,600
312,1455472060.51738333702087402344,608
313,1455472060.58731913566589355469,608
314,1455472060.65894412994384765625,608
315,1455472060.72763085365295410156,608
316,1455472060.79860401153564453125,608
317,1455472060.86878490447998046875,608
318,1455472060.93895983695983886719,608
319,1455472061.00843334197998046875,608
320,1455472061.07779741287231445312,608
321,1455472061.14808368682861328125,608
322,1455472061.21824860572814941406,608
323,1455472061.28879785537719726562,600
324,1455472061.35818719863891601562,600
325,1455472061.42775678634643554688,592
326,1455472061.49768471717834472656,584
327,1455472061.56840038299560546875,584
328,1455472061.63811707496643066406,576
329,1455472061.7097015380859375,568
330,1455472061.77803373336791992188,568
331,1455472061.84793543815612792969,560
332,1455472061.91771292686462402344,552
333,1455472061.98805785179138183594,544
334,1455472062.05945301055908203125,496
335,1455472062.12851881980895996094,504
336,1455472062.19777560234069824219,512
337,1455472062.26811242103576660156,520
338,1455472062.33845400810241699219,528
339,1455472062.410503387451171875,536
340,1455472062.47762370109558105469,544
341,1455472062.54877972602844238281,552
342,1455472062.61810851097106933594,560
343,1455472062.68825101852416992188,568
344,1455472062.75908780097961425781,576
345,1455472062.8279170989990234375,584
346,1455472062.8983554840087890625,584
347,1455472062.96856689453125,592
348,1455472063.03835940361022949219,592
349,1455472063.10870909690856933594,600
350,1455472063.17759966850280761719,600
351,1455472063.24791836738586425781,608
352,1455472063.31805562973022460938,608
353,1455472063.39108395576477050781,608
354,1455472063.45890021324157714844,608
355,1455472063.52805089950561523438,608
356,1455472063.59768247604370117188,608
357,1455472063.66779351234436035156,608
358,1455472063.73764014244079589844,608
359,1455472063.81060385704040527344,608
360,1455472063.87811756134033203125,608
361,1455472063.94773602485656738281,600
362,1455472064.01785826683044433594,600
363,1455472064.08773326873779296875,600
364,1455472064.15870213508605957031,592
365,1455472064.22917127609252929688,584
366,1455472064.29777646064758300781,584
367,1455472064.36782193183898925781,576
368,1455472064.43821883201599121094,568
369,1455472064.50902223587036132812,560
370,1455472064.57783532142639160156,560
371,1455472064.6491413116455078125,552
372,1455472064.7182903289794921875,544
373,1455472064.78778672218322753906,536
374,1455472064.85872507095336914062,528
375,1455472064.92831492424011230469,520
376,1455472064.998416900634765625,512
377,1455472065.07114720344543457031,504
378,1455472065.13864374160766601562,496
379,1455472065.20852684974670410156,480
380,1455472065.27770280838012695312,472
381,1455472065.34807872772216796875,464
382,1455472065.41762065887451171875,456
383,1455472065.48856902122497558594,448
384,1455472065.559955596923828125,440
385,1455472065.62834000587463378906,432
386,1455472065.69731283187866210938,432
387,1455472065.76814055442810058594,424
388,1455472065.83768892288208007812,416
389,1455472065.90995812416076660156,408
390,1455472065.97805190086364746094,400
391,1455472066.0475864410400390625,400
392,1455472066.11735987663269042969,392
393,1455472066.1892871856689453125,392
394,1455472066.26059699058532714844,384
395,1455472066.32921385765075683594,384
396,1455472066.39809322357177734375,376
397,1455472066.46788668632507324219,376
398,1455472066.53801131248474121094,376
399,1455472066.61086273193359375,376
400,1455472066.6783924102783203125,376
401,1455472066.74878406524658203125,376
402,1455472066.8177204132080078125,376
403,1455472066.88800072669982910156,376
404,1455472066.95917081832885742188,376
405,1455472067.03115749359130859375,376
406,1455472067.09792637825012207031,384
407,1455472067.16850543022155761719,384
408,1455472067.2378635406494140625,392
409,1455472067.31010484695434570312,392
410,1455472067.37807202339172363281,400
411,1455472067.44727301597595214844,400
412,1455472067.51741313934326171875,408
413,1455472067.58911991119384765625,416
414,1455472067.65801119804382324219,424
415,1455472067.72741961479187011719,432
416,1455472067.79754853248596191406,432
417,1455472067.86759495735168457031,440
418,1455472067.93776464462280273438,448
419,1455472068.00982141494750976562,456
420,1455472068.07815909385681152344,464
421,1455472068.14780282974243164062,472
422,1455472068.21792769432067871094,488
423,1455472068.2883586883544921875,496
424,1455472068.36025500297546386719,504
425,1455472068.42910695075988769531,512
426,1455472068.49776053428649902344,520
427,1455472068.56776785850524902344,528
428,1455472068.63745450973510742188,536
429,1455472068.71068358421325683594,544
430,1455472068.77814745903015136719,552
431,1455472068.84914159774780273438,560
432,1455472068.91791391372680664062,560
433,1455472068.98824596405029296875,568
434,1455472069.05824637413024902344,576
435,1455472069.12743520736694335938,584
436,1455472069.19742536544799804688,584
437,1455472069.26914501190185546875,592
438,1455472069.33775281906127929688,600
439,1455472069.41075730323791503906,600
440,1455472069.47786974906921386719,600
441,1455472069.54781508445739746094,608
442,1455472069.61781001091003417969,608
443,1455472069.68912792205810546875,608
444,1455472069.7589111328125,608
445,1455472069.82765483856201171875,608
446,1455472069.89732217788696289062,608
447,1455472069.96813917160034179688,608
448,1455472070.03827404975891113281,608
449,1455472070.10970425605773925781,608
450,1455472070.17739963531494140625,608
451,1455472070.24778628349304199219,600
452,1455472070.31806015968322753906,600
453,1455472070.38937878608703613281,592
454,1455472070.45855545997619628906,592
455,1455472070.52928042411804199219,584
456,1455472070.59794187545776367188,584
457,1455472070.66779732704162597656,576
458,1455472070.73900938034057617188,568
459,1455472070.93694138526916503906,552
460,1455472070.94413280487060546875,544
461,1455472070.95123839378356933594,544
462,1455472071.01834869384765625,496
463,1455472071.09047722816467285156,504
464,1455472071.15829300880432128906,512
465,1455472071.22812747955322265625,520
466,1455472071.29766488075256347656,528
467,1455472071.368824005126953125,536
468,1455472071.438625335693359375,544
469,1455472071.507343292236328125,552
470,1455472071.57811951637268066406,560
471,1455472071.648143768310546875,568
472,1455472071.71792197227478027344,568
473,1455472071.78996300697326660156,576
474,1455472071.85851192474365234375,584
475,1455472071.92821717262268066406,592
476,1455472071.99754977226257324219,592
477,1455472072.06809115409851074219,600
478,1455472072.13862729072570800781,600
479,1455472072.20936942100524902344,608
480,1455472072.27797436714172363281,608
481,1455472072.3478240966796875,608
482,1455472072.41727757453918457031,608
483,1455472072.48869943618774414062,608
484,1455472072.55837154388427734375,608
485,1455472072.62855577468872070312,608
486,1455472072.69773077964782714844,608
487,1455472072.76802325248718261719,608
488,1455472072.83822083473205566406,608
489,1455472072.90797066688537597656,608
490,1455472072.97787404060363769531,600
491,1455472073.04845118522644042969,600
492,1455472073.11831235885620117188,592
493,1455472073.1908817291259765625,592
494,1455472073.25769400596618652344,584
495,1455472073.32773613929748535156,576
496,1455472073.39835643768310546875,576
497,1455472073.46856546401977539062,568
498,1455472073.53869032859802246094,560
499,1455472073.60776376724243164062,552
500,1455472073.67776393890380859375,544
501,1455472073.7482738494873046875,536
502,1455472073.81883668899536132812,528
503,1455472073.88924837112426757812,520
504,1455472073.95819640159606933594,512
