id, time (s), size (bits)
0,1455472037.976287841796875,512
1,1455472038.02639746665954589844,504
2,1455472038.07655119895935058594,496
3,1455472038.12636923789978027344,496
4,1455472038.17657732963562011719,488
5,1455472038.22697377204895019531,480
6,1455472038.27722930908203125,472
7,1455472038.32637739181518554688,472
8,1455472038.37706613540649414062,464
9,1455472038.42649984359741210938,456
10,1455472038.47697949409484863281,456
11,1455472038.52719330787658691406,448
12,1455472038.57641148567199707031,440
13,1455472038.6271114349365234375,440
14,1455472038.67668461799621582031,432
15,1455472038.72652220726013183594,424
16,1455472038.77876377105712890625,424
17,1455472038.82682681083679199219,416
18,1455472038.87685465812683105469,408
19,1455472038.926456451416015625,408
20,1455472038.97603559494018554688,400
21,1455472039.026630401611328125,400
22,1455472039.07682752609252929688,392
23,1455472039.12732839584350585938,392
24,1455472039.17599582672119140625,392
25,1455472039.22613883018493652344,384
26,1455472039.27840662002563476562,384
27,1455472039.32690668106079101562,384
28,1455472039.37633371353149414062,376
29,1455472039.42682528495788574219,376
30,1455472039.47670912742614746094,376
31,1455472039.52787518501281738281,376
32,1455472039.57709336280822753906,376
33,1455472039.62637853622436523438,376
34,1455472039.67657828330993652344,376
35,1455472039.72726273536682128906,376
36,1455472039.77680873870849609375,376
37,1455472039.82734656333923339844,376
38,1455472039.87725090980529785156,376
39,1455472039.92641901969909667969,376
40,1455472039.97683835029602050781,376
41,1455472040.02674078941345214844,376
42,1455472040.07680082321166992188,376
43,1455472040.12778043746948242188,384
44,1455472040.17716312408447265625,384
45,1455472040.22617435455322265625,384
46,1455472040.27632260322570800781,392
47,1455472040.32669615745544433594,392
48,1455472040.37687397003173828125,400
49,1455472040.42712926864624023438,400
50,1455472040.47788929939270019531,408
51,1455472040.52641701698303222656,408
52,1455472040.57704567909240722656,416
53,1455472040.62703108787536621094,416
54,1455472040.67682790756225585938,424
55,1455472040.72681450843811035156,432
56,1455472040.77746415138244628906,432
57,1455472040.82675814628601074219,440
58,1455472040.87636446952819824219,448
59,1455472040.92674350738525390625,448
60,1455472040.97696566581726074219,456
61,1455472041.02679800987243652344,464
62,1455472041.07724213600158691406,464
63,1455472041.12673091888427734375,472
64,1455472041.17674589157104492188,480
65,1455472041.22699093818664550781,488
66,1455472041.27704930305480957031,488
67,1455472041.32599210739135742188,496
68,1455472041.37642526626586914062,504
69,1455472041.42669153213500976562,512
70,1455472041.47670602798461914062,512
71,1455472041.52692246437072753906,520
72,1455472041.577068328857421875,528
73,1455472041.62605810165405273438,536
74,1455472041.67808079719543457031,536
75,1455472041.72628307342529296875,544
76,1455472041.7767887115478515625,552
77,1455472041.82679128646850585938,552
78,1455472041.87652420997619628906,560
79,1455472041.9265117645263671875,560
80,1455472041.97728705406188964844,568
81,1455472042.02605152130126953125,576
82,1455472042.07632923126220703125,576
83,1455472042.12692379951477050781,584
84,1455472042.17713689804077148438,584
85,1455472042.22631144523620605469,592
86,1455472042.27683281898498535156,592
87,1455472042.32699036598205566406,592
88,1455472042.37677550315856933594,600
89,1455472042.42694497108459472656,600
90,1455472042.47704768180847167969,600
91,1455472042.52807331085205078125,608
92,1455472042.57667899131774902344,608
93,1455472042.62685418128967285156,608
94,1455472042.67693972587585449219,608
95,1455472042.72720193862915039062,608
96,1455472042.77660655975341796875,608
97,1455472042.82664394378662109375,608
98,1455472042.87636518478393554688,608
99,1455472042.92651128768920898438,608
100,1455472042.97686171531677246094,608
101,1455472043.02704286575317382812,608
102,1455472043.076038360595703125,608
103,1455472043.12688589096069335938,608
104,1455472043.17762899398803710938,608
105,1455472043.22612023353576660156,600
106,1455472043.27641844749450683594,600
107,1455472043.32625579833984375,600
108,1455472043.37635374069213867188,592
109,1455472043.42670607566833496094,592
110,1455472043.47669649124145507812,592
111,1455472043.52704644203186035156,584
112,1455472043.57676148414611816406,584
113,1455472043.62672829627990722656,576
114,1455472043.67661714553833007812,576
115,1455472043.72810196876525878906,568
116,1455472043.77738690376281738281,568
117,1455472043.82684206962585449219,560
118,1455472043.87721610069274902344,552
119,1455472043.9263477325439453125,552
120,1455472043.97631120681762695312,544
121,1455472044.02626752853393554688,496
122,1455472044.07810688018798828125,504
123,1455472044.12635517120361328125,504
124,1455472044.17660403251647949219,512
125,1455472044.22682929039001464844,520
126,1455472044.27672338485717773438,528
127,1455472044.32865476608276367188,528
128,1455472044.37679839134216308594,536
129,1455472044.42676758766174316406,544
130,1455472044.47631669044494628906,544
131,1455472044.52652525901794433594,552
132,1455472044.576610565185546875,560
133,1455472044.62647342681884765625,560
134,1455472044.67732930183410644531,568
135,1455472044.72829604148864746094,568
136,1455472044.77682566642761230469,576
137,1455472044.82698869705200195312,584
138,1455472044.87632322311401367188,584
139,1455472044.9265899658203125,584
140,1455472044.97744154930114746094,592
141,1455472045.02788066864013671875,592
142,1455472045.07637333869934082031,600
143,1455472045.12721323966979980469,600
144,1455472045.17708373069763183594,600
145,1455472045.22635507583618164062,608
146,1455472045.27808308601379394531,608
147,1455472045.32826828956604003906,608
148,1455472045.37603521347045898438,608
149,1455472045.42706561088562011719,608
150,1455472045.47676944732666015625,608
151,1455472045.52810025215148925781,608
152,1455472045.57761788368225097656,608
153,1455472045.6271877288818359375,608
154,1455472045.67640042304992675781,608
155,1455472045.72642850875854492188,608
156,1455472045.77607250213623046875,608
157,1455472045.82688593864440917969,608
158,1455472045.87700152397155761719,608
159,1455472045.92717576026916503906,608
160,1455472045.97711324691772460938,600
161,1455472046.02735662460327148438,600
162,1455472046.07665419578552246094,600
163,1455472046.12856984138488769531,592
164,1455472046.17733693122863769531,592
165,1455472046.22601056098937988281,584
166,1455472046.27709412574768066406,584
167,1455472046.32669401168823242188,576
168,1455472046.37701773643493652344,576
169,1455472046.42735314369201660156,568
170,1455472046.47762799263000488281,568
171,1455472046.52640962600708007812,560
172,1455472046.5788021087646484375,560
173,1455472046.62684226036071777344,552
174,1455472046.67832732200622558594,544
175,1455472046.72659015655517578125,544
176,1455472046.77850389480590820312,536
177,1455472046.8261241912841796875,528
178,1455472046.87686371803283691406,520
179,1455472046.926753997802734375,520
180,1455472046.97723627090454101562,512
181,1455472047.02832341194152832031,504
182,1455472047.07827448844909667969,496
183,1455472047.12669873237609863281,496
184,1455472047.17684102058410644531,488
185,1455472047.22698736190795898438,480
186,1455472047.276882171630859375,472
187,1455472047.32638144493103027344,472
188,1455472047.3777294158935546875,464
189,1455472047.42672848701477050781,456
190,1455472047.47661304473876953125,456
191,1455472047.52826094627380371094,448
192,1455472047.57695865631103515625,440
193,1455472047.62604379653930664062,440
194,1455472047.67726349830627441406,432
195,1455472047.72689390182495117188,424
196,1455472047.77630305290222167969,424
197,1455472047.82627797126770019531,416
198,1455472047.87647318840026855469,408
199,1455472047.92660641670227050781,408
200,1455472047.97728204727172851562,400
201,1455472048.02603244781494140625,400
202,1455472048.07625722885131835938,392
203,1455472048.12664794921875,392
204,1455472048.17649984359741210938,392
205,1455472048.22894072532653808594,384
206,1455472048.27707147598266601562,384
207,1455472048.3265285491943359375,384
208,1455472048.3767833709716796875,376
209,1455472048.42698073387145996094,376
210,1455472048.47687363624572753906,376
211,1455472048.52702784538269042969,376
212,1455472048.57708048820495605469,376
213,1455472048.626068115234375,376
214,1455472048.67691373825073242188,376
215,1455472048.72671079635620117188,376
216,1455472048.77682662010192871094,376
217,1455472048.826873779296875,376
218,1455472048.87753009796142578125,376
219,1455472048.92713689804077148438,376
220,1455472048.97648954391479492188,376
221,1455472049.02671694755554199219,376
222,1455472049.07647800445556640625,376
223,1455472049.12866067886352539062,384
224,1455472049.17806386947631835938,384
225,1455472049.22690415382385253906,384
226,1455472049.27609848976135253906,392
227,1455472049.32648801803588867188,392
228,1455472049.37673354148864746094,400
229,1455472049.42655467987060546875,400
230,1455472049.47713947296142578125,408
231,1455472049.52662348747253417969,408
232,1455472049.57646512985229492188,416
233,1455472049.627025604248046875,416
234,1455472049.67606377601623535156,424
235,1455472049.72646760940551757812,432
236,1455472049.77701091766357421875,432
237,1455472049.82730126380920410156,440
238,1455472049.876300811767578125,448
239,1455472049.92732954025268554688,448
240,1455472049.97815561294555664062,456
241,1455472050.02702856063842773438,464
242,1455472050.07822728157043457031,464
243,1455472050.12683749198913574219,472
244,1455472050.1764316558837890625,480
245,1455472050.22649049758911132812,488
246,1455472050.27675795555114746094,488
247,1455472050.32809162139892578125,496
248,1455472050.37670493125915527344,504
249,1455472050.42715549468994140625,512
250,1455472050.47623848915100097656,512
251,1455472050.52698278427124023438,520
252,1455472050.57701015472412109375,528
253,1455472050.6285381317138671875,536
254,1455472050.67735743522644042969,536
255,1455472050.72688603401184082031,544
256,1455472050.77642178535461425781,552
257,1455472050.82659363746643066406,552
258,1455472050.87677478790283203125,560
259,1455472050.92878031730651855469,568
260,1455472050.97639703750610351562,568
261,1455472051.02638912200927734375,576
262,1455472051.07611393928527832031,576
263,1455472051.1266651153564453125,584
264,1455472051.17701077461242675781,584
265,1455472051.22712540626525878906,592
266,1455472051.278415679931640625,592
267,1455472051.32695674896240234375,592
268,1455472051.37640118598937988281,600
269,1455472051.42655611038208007812,600
270,1455472051.47677779197692871094,600
271,1455472051.52666711807250976562,608
272,1455472051.57707047462463378906,608
273,1455472051.62657690048217773438,608
274,1455472051.6766510009765625,608
275,1455472051.72663998603820800781,608
276,1455472051.77664041519165039062,608
277,1455472051.8264293670654296875,608
278,1455472051.87712311744689941406,608
279,1455472051.92699384689331054688,608
280,1455472051.97692060470581054688,608
281,1455472052.02679538726806640625,608
282,1455472052.07639169692993164062,608
283,1455472052.12776851654052734375,608
284,1455472052.17723870277404785156,608
285,1455472052.22661042213439941406,600
286,1455472052.27663660049438476562,600
287,1455472052.32681632041931152344,600
288,1455472052.37700510025024414062,592
289,1455472052.42666578292846679688,592
290,1455472052.47811579704284667969,592
291,1455472052.52606463432312011719,584
292,1455472052.57666730880737304688,584
293,1455472052.62693905830383300781,576
294,1455472052.67666029930114746094,576
295,1455472052.72665953636169433594,568
296,1455472052.77682518959045410156,568
297,1455472052.82608103752136230469,560
298,1455472052.87663674354553222656,552
299,1455472052.92682933807373046875,552
300,1455472052.97690105438232421875,544
301,1455472053.02868890762329101562,496
302,1455472053.077182769775390625,504
303,1455472053.12646007537841796875,504
304,1455472053.17625761032104492188,512
305,1455472053.22621893882751464844,520
306,1455472053.27677869796752929688,528
307,1455472053.32706022262573242188,528
308,1455472053.37751913070678710938,536
309,1455472053.42666840553283691406,544
310,1455472053.47644901275634765625,544
311,1455472053.52678203582763671875,552
312,1455472053.57686138153076171875,560
313,1455472053.62627816200256347656,560
314,1455472053.67805433273315429688,568
315,1455472053.72660517692565917969,568
316,1455472053.77628874778747558594,576
317,1455472053.82630658149719238281,584
318,1455472053.8761615753173828125,584
319,1455472053.92733669281005859375,584
320,1455472053.97731232643127441406,592
321,1455472054.02657556533813476562,592
322,1455472054.07670712471008300781,600
323,1455472054.12720465660095214844,600
324,1455472054.17604613304138183594,600
325,1455472054.22803807258605957031,608
326,1455472054.27679538726806640625,608
327,1455472054.32715392112731933594,608
328,1455472054.3762645721435546875,608
329,1455472054.42719030380249023438,608
330,1455472054.47631549835205078125,608
331,1455472054.52694725990295410156,608
332,1455472054.57674407958984375,608
333,1455472054.62632894515991210938,608
334,1455472054.67692685127258300781,608
335,1455472054.72705006599426269531,608
336,1455472054.77691721916198730469,608
337,1455472054.82696413993835449219,608
338,1455472054.87654376029968261719,608
339,1455472054.92628407478332519531,608
340,1455472054.97609591484069824219,600
341,1455472055.02697110176086425781,600
342,1455472055.07692885398864746094,600
343,1455472055.12695670127868652344,592
344,1455472055.17711186408996582031,592
345,1455472055.22611927986145019531,584
346,1455472055.27704834938049316406,584
347,1455472055.32708048820495605469,576
348,1455472055.3770809173583984375,576
349,1455472055.42945623397827148438,568
350,1455472055.47737789154052734375,568
351,1455472055.52605271339416503906,560
352,1455472055.57672381401062011719,560
353,1455472055.62801718711853027344,552
354,1455472055.67713069915771484375,544
355,1455472055.72707414627075195312,544
356,1455472055.77877473831176757812,536
357,1455472055.82674574851989746094,528
358,1455472055.87641739845275878906,520
359,1455472055.92653751373291015625,520
360,1455472055.97616267204284667969,512
361,1455472056.02703380584716796875,504
362,1455472056.07758641242980957031,496
363,1455472056.1262493133544921875,496
364,1455472056.17660999298095703125,488
365,1455472056.22643709182739257812,480
366,1455472056.27663850784301757812,472
367,1455472056.3269100189208984375,472
368,1455472056.37681746482849121094,464
369,1455472056.4266757965087890625,456
370,1455472056.47706460952758789062,456
371,1455472056.52716708183288574219,448
372,1455472056.57643294334411621094,440
373,1455472056.62844967842102050781,432
374,1455472056.67674994468688964844,432
375,1455472056.72623467445373535156,424
376,1455472056.77603268623352050781,424
377,1455472056.82676219940185546875,416
378,1455472056.87671613693237304688,408
379,1455472056.92877054214477539062,408
380,1455472056.97735166549682617188,400
381,1455472057.02711772918701171875,400
382,1455472057.07638454437255859375,392
383,1455472057.12697887420654296875,392
384,1455472057.1771984100341796875,392
385,1455472057.22671794891357421875,384
386,1455472057.27826333045959472656,384
387,1455472057.32606434822082519531,384
388,1455472057.3768024444580078125,376
389,1455472057.42710542678833007812,376
390,1455472057.47643876075744628906,376
391,1455472057.52794766426086425781,376
392,1455472057.57851696014404296875,376
393,1455472057.6268596649169921875,376
394,1455472057.67718100547790527344,376
395,1455472057.72631025314331054688,376
396,1455472057.77696728706359863281,376
397,1455472057.82678437232971191406,376
398,1455472057.87732648849487304688,376
399,1455472057.92664885520935058594,376
400,1455472057.97688174247741699219,376
401,1455472058.02686142921447753906,376
402,1455472058.07674264907836914062,376
403,1455472058.12614011764526367188,384
404,1455472058.17748475074768066406,384
405,1455472058.22712802886962890625,384
406,1455472058.27646565437316894531,392
407,1455472058.32712030410766601562,392
408,1455472058.37600064277648925781,400
409,1455472058.42645573616027832031,400
410,1455472058.4782466888427734375,408
411,1455472058.52625584602355957031,408
412,1455472058.57677817344665527344,416
413,1455472058.626987457275390625,416
414,1455472058.67636322975158691406,424
415,1455472058.72847127914428710938,432
416,1455472058.77703332901000976562,432
417,1455472058.82629275321960449219,440
418,1455472058.87664818763732910156,448
419,1455472058.92724299430847167969,448
420,1455472058.97634482383728027344,456
421,1455472059.02853703498840332031,464
422,1455472059.07711362838745117188,464
423,1455472059.12679004669189453125,472
424,1455472059.17690896987915039062,480
425,1455472059.22700548171997070312,488
426,1455472059.27726578712463378906,488
427,1455472059.32877135276794433594,496
428,1455472059.37629652023315429688,504
429,1455472059.42656683921813964844,512
430,1455472059.47695946693420410156,512
431,1455472059.52698826789855957031,520
432,1455472059.57637786865234375,528
433,1455472059.62628412246704101562,536
434,1455472059.67626547813415527344,536
435,1455472059.7264690399169921875,544
436,1455472059.77637934684753417969,552
437,1455472059.82627606391906738281,552
438,1455472059.87689304351806640625,560
439,1455472059.93271160125732421875,568
440,1455472059.97847843170166015625,568
441,1455472060.02654695510864257812,576
442,1455472060.07631540298461914062,576
443,1455472060.12648439407348632812,584
444,1455472060.17694735527038574219,584
445,1455472060.22631597518920898438,592
446,1455472060.27715229988098144531,592
447,1455472060.32657575607299804688,592
448,1455472060.37638044357299804688,600
449,1455472060.42701220512390136719,600
450,1455472060.47634220123291015625,600
451,1455472060.52751779556274414062,608
452,1455472060.57708835601806640625,608
453,1455472060.62615561485290527344,608
454,1455472060.67662644386291503906,608
455,1455472060.72680735588073730469,608
456,1455472060.77655553817749023438,608
457,1455472060.82698798179626464844,608
458,1455472060.87796878814697265625,608
459,1455472060.92707896232604980469,608
460,1455472060.97686600685119628906,608
461,1455472061.027065277099609375,608
462,1455472061.07706451416015625,608
463,1455472061.12895464897155761719,608
464,1455472061.17726039886474609375,608
465,1455472061.22671079635620117188,600
466,1455472061.27602910995483398438,600
467,1455472061.32716965675354003906,600
468,1455472061.37633180618286132812,600
469,1455472061.42615604400634765625,592
470,1455472061.47742438316345214844,592
471,1455472061.52666139602661132812,584
472,1455472061.57682776451110839844,584
473,1455472061.62652468681335449219,576
474,1455472061.67656683921813964844,576
475,1455472061.72604870796203613281,568
476,1455472061.77763462066650390625,568
477,1455472061.8267345428466796875,560
478,1455472061.87652254104614257812,552
479,1455472061.92682528495788574219,552
480,1455472061.97700858116149902344,544
481,1455472062.02720594406127929688,496
482,1455472062.07771968841552734375,504
483,1455472062.12702083587646484375,504
484,1455472062.17659616470336914062,512
485,1455472062.2269802093505859375,520
486,1455472062.27624392509460449219,528
487,1455472062.32846713066101074219,528
488,1455472062.37723088264465332031,536
489,1455472062.42674183845520019531,544
490,1455472062.47693634033203125,544
491,1455472062.52698683738708496094,552
492,1455472062.57644987106323242188,560
493,1455472062.628978729248046875,560
494,1455472062.67718863487243652344,568
495,1455472062.72772979736328125,568
496,1455472062.7768993377685546875,576
497,1455472062.82694196701049804688,584
498,1455472062.87671232223510742188,584
499,1455472062.92678141593933105469,584
500,1455472062.97729730606079101562,592
501,1455472063.02698779106140136719,592
502,1455472063.07632207870483398438,600
503,1455472063.12650251388549804688,600
