id, time (s), size (bits)
0,1455472037.99668478965759277344,512
1,1455472038.06730103492736816406,504
2,1455472038.13743662834167480469,496
3,1455472038.20662808418273925781,488
4,1455472038.27805209159851074219,472
5,1455472038.34751963615417480469,464
6,1455472038.41748905181884765625,456
7,1455472038.48686122894287109375,448
8,1455472038.55717420578002929688,440
9,1455472038.62796831130981445312,432
10,1455472038.6967258453369140625,432
11,1455472038.76748991012573242188,424
12,1455472038.83675742149353027344,416
13,1455472038.90738344192504882812,408
14,1455472038.97885584831237792969,400
15,1455472039.0470447540283203125,400
16,1455472039.11685037612915039062,392
17,1455472039.1879405975341796875,392
18,1455472039.25699114799499511719,384
19,1455472039.32783722877502441406,384
20,1455472039.3974552154541015625,376
21,1455472039.46696949005126953125,376
22,1455472039.53722143173217773438,376
23,1455472039.60752964019775390625,376
24,1455472039.67746281623840332031,376
25,1455472039.74646687507629394531,376
26,1455472039.81709909439086914062,376
27,1455472039.88907384872436523438,376
28,1455472039.95660424232482910156,376
29,1455472040.02823948860168457031,376
30,1455472040.09748244285583496094,384
31,1455472040.16681671142578125,384
32,1455472040.23851037025451660156,392
33,1455472040.30748510360717773438,392
34,1455472040.37774825096130371094,400
35,1455472040.44779276847839355469,400
36,1455472040.51739263534545898438,408
37,1455472040.58677816390991210938,416
38,1455472040.65669560432434082031,424
39,1455472040.72771215438842773438,432
40,1455472040.79643297195434570312,432
41,1455472040.86793494224548339844,440
42,1455472040.93677306175231933594,448
43,1455472041.00739502906799316406,456
44,1455472041.07818436622619628906,464
45,1455472041.14666485786437988281,472
46,1455472041.21678328514099121094,488
47,1455472041.28792929649353027344,496
48,1455472041.35699534416198730469,504
49,1455472041.4276676177978515625,512
50,1455472041.4974956512451171875,520
51,1455472041.5669765472412109375,528
52,1455472041.63734102249145507812,536
53,1455472041.70802211761474609375,544
54,1455472041.77761363983154296875,552
55,1455472041.84739851951599121094,560
56,1455472041.91812109947204589844,560
57,1455472041.98786115646362304688,568
58,1455472042.05716705322265625,576
59,1455472042.1302356719970703125,584
60,1455472042.19716906547546386719,584
61,1455472042.26639628410339355469,592
62,1455472042.33841872215270996094,600
63,1455472042.40696120262145996094,600
64,1455472042.47798776626586914062,600
65,1455472042.54816126823425292969,608
66,1455472042.61684823036193847656,608
67,1455472042.68685007095336914062,608
68,1455472042.75748085975646972656,608
69,1455472042.82771205902099609375,608
70,1455472042.89650487899780273438,608
71,1455472042.96759462356567382812,608
72,1455472043.03693652153015136719,608
73,1455472043.10727405548095703125,608
74,1455472043.17857718467712402344,608
75,1455472043.24739050865173339844,600
76,1455472043.31696796417236328125,600
77,1455472043.38843441009521484375,592
78,1455472043.45681023597717285156,592
79,1455472043.52786731719970703125,584
80,1455472043.59739947319030761719,584
81,1455472043.66827249526977539062,576
82,1455472043.73678731918334960938,568
83,1455472043.807544708251953125,560
84,1455472043.87810015678405761719,552
85,1455472043.94730472564697265625,544
86,1455472044.01790332794189453125,496
87,1455472044.08913946151733398438,504
88,1455472044.15644550323486328125,512
89,1455472044.22839903831481933594,520
90,1455472044.29686021804809570312,528
91,1455472044.36707162857055664062,536
92,1455472044.43804502487182617188,544
93,1455472044.50757670402526855469,552
94,1455472044.57749676704406738281,560
95,1455472044.64769577980041503906,568
96,1455472044.7164764404296875,568
97,1455472044.78667020797729492188,576
98,1455472044.85828804969787597656,584
99,1455472044.92954134941101074219,592
100,1455472044.99666428565979003906,592
101,1455472045.06821751594543457031,600
102,1455472045.13709759712219238281,600
103,1455472045.20729708671569824219,608
104,1455472045.27902460098266601562,608
105,1455472045.34738898277282714844,608
106,1455472045.4168796539306640625,608
107,1455472045.48768258094787597656,608
108,1455472045.55682444572448730469,608
109,1455472045.62799763679504394531,608
110,1455472045.69727301597595214844,608
111,1455472045.76738095283508300781,608
112,1455472045.83675050735473632812,608
113,1455472045.90804839134216308594,608
114,1455472045.97803735733032226562,600
115,1455472046.04709911346435546875,600
116,1455472046.1176166534423828125,592
117,1455472046.18724203109741210938,592
118,1455472046.25670194625854492188,584
119,1455472046.32818865776062011719,576
120,1455472046.39670348167419433594,576
121,1455472046.46715140342712402344,568
122,1455472046.53969311714172363281,560
123,1455472046.60701322555541992188,552
124,1455472046.67927694320678710938,544
125,1455472046.74825429916381835938,536
126,1455472046.81737589836120605469,528
127,1455472046.88678717613220214844,520
128,1455472046.9584445953369140625,512
129,1455472047.02930283546447753906,504
130,1455472047.09726977348327636719,496
131,1455472047.16771984100341796875,488
132,1455472047.23694133758544921875,480
133,1455472047.30714249610900878906,472
134,1455472047.37865853309631347656,464
135,1455472047.446994781494140625,456
136,1455472047.51724267005920410156,448
137,1455472047.58773636817932128906,440
138,1455472047.65687012672424316406,432
139,1455472047.72803831100463867188,424
140,1455472047.79845118522644042969,416
141,1455472047.86743092536926269531,416
142,1455472047.93720555305480957031,408
143,1455472048.00894427299499511719,400
144,1455472048.07708191871643066406,392
145,1455472048.14741849899291992188,392
146,1455472048.21690297126770019531,384
147,1455472048.28835606575012207031,384
148,1455472048.3566379547119140625,376
149,1455472048.42849802970886230469,376
150,1455472048.49809694290161132812,376
151,1455472048.56697535514831542969,376
152,1455472048.63826036453247070312,376
153,1455472048.70664715766906738281,376
154,1455472048.77767205238342285156,376
155,1455472048.84784054756164550781,376
156,1455472048.91699910163879394531,376
157,1455472048.98643946647644042969,376
158,1455472049.05735802650451660156,376
159,1455472049.12950873374938964844,384
160,1455472049.19727277755737304688,384
161,1455472049.26793169975280761719,392
162,1455472049.33746600151062011719,392
163,1455472049.40745973587036132812,400
164,1455472049.47807025909423828125,408
165,1455472049.54666352272033691406,408
166,1455472049.61671471595764160156,416
167,1455472049.6883544921875,424
168,1455472049.75730228424072265625,432
169,1455472049.82816815376281738281,440
170,1455472049.89687705039978027344,448
171,1455472049.96849894523620605469,456
172,1455472050.03682494163513183594,464
173,1455472050.10762119293212890625,472
174,1455472050.17731523513793945312,480
175,1455472050.24660396575927734375,488
176,1455472050.31858110427856445312,496
177,1455472050.38939332962036132812,504
178,1455472050.45711922645568847656,512
179,1455472050.5286502838134765625,520
180,1455472050.59706473350524902344,528
181,1455472050.6668300628662109375,536
182,1455472050.73817539215087890625,544
183,1455472050.80766773223876953125,552
184,1455472050.87765574455261230469,560
185,1455472050.94801211357116699219,568
186,1455472051.01744985580444335938,576
187,1455472051.08715915679931640625,576
188,1455472051.15683436393737792969,584
189,1455472051.22812747955322265625,592
190,1455472051.29700398445129394531,592
191,1455472051.36811399459838867188,600
192,1455472051.43646359443664550781,600
193,1455472051.50726318359375,608
194,1455472051.57802319526672363281,608
195,1455472051.6468410491943359375,608
196,1455472051.7173595428466796875,608
197,1455472051.7882747650146484375,608
198,1455472051.85668206214904785156,608
199,1455472051.92784380912780761719,608
200,1455472051.99671649932861328125,608
201,1455472052.06828403472900390625,608
202,1455472052.13686823844909667969,608
203,1455472052.20830225944519042969,608
204,1455472052.27746367454528808594,600
205,1455472052.34691572189331054688,600
206,1455472052.41656661033630371094,592
207,1455472052.48907375335693359375,592
208,1455472052.55718350410461425781,584
209,1455472052.62852740287780761719,576
210,1455472052.69720005989074707031,568
211,1455472052.76729559898376464844,568
212,1455472052.83810329437255859375,560
213,1455472052.90670037269592285156,552
214,1455472052.97787451744079589844,544
215,1455472053.04793500900268554688,496
216,1455472053.11726403236389160156,504
217,1455472053.18703722953796386719,512
218,1455472053.25760912895202636719,520
219,1455472053.32811284065246582031,528
220,1455472053.39647603034973144531,536
221,1455472053.46819710731506347656,544
222,1455472053.53684353828430175781,552
223,1455472053.60670161247253417969,560
224,1455472053.67899417877197265625,568
225,1455472053.74657893180847167969,576
226,1455472053.816997528076171875,576
227,1455472053.88778638839721679688,584
228,1455472053.95730161666870117188,592
229,1455472054.02746295928955078125,592
230,1455472054.09690070152282714844,600
231,1455472054.168994903564453125,600
232,1455472054.23690366744995117188,608
233,1455472054.30763769149780273438,608
234,1455472054.37708401679992675781,608
235,1455472054.44729208946228027344,608
236,1455472054.51687383651733398438,608
237,1455472054.5867404937744140625,608
238,1455472054.65728616714477539062,608
239,1455472054.72885155677795410156,608
240,1455472054.79766583442687988281,608
241,1455472054.86663198471069335938,608
242,1455472054.93898534774780273438,600
243,1455472055.00763201713562011719,600
244,1455472055.07784438133239746094,600
245,1455472055.14821577072143554688,592
246,1455472055.21718049049377441406,584
247,1455472055.28718113899230957031,584
248,1455472055.35802888870239257812,576
249,1455472055.43029689788818359375,568
250,1455472055.49729681015014648438,568
251,1455472055.5677242279052734375,560
252,1455472055.63676905632019042969,552
253,1455472055.70703840255737304688,544
254,1455472055.77963948249816894531,536
255,1455472055.84661269187927246094,528
256,1455472055.91735529899597167969,520
257,1455472055.987995147705078125,512
258,1455472056.05694603919982910156,504
259,1455472056.12709712982177734375,496
260,1455472056.19713544845581054688,488
261,1455472056.26666593551635742188,480
262,1455472056.33670806884765625,472
263,1455472056.40797448158264160156,464
264,1455472056.47796511650085449219,456
265,1455472056.547077178955078125,448
266,1455472056.61695194244384765625,440
267,1455472056.68680739402770996094,432
268,1455472056.75691461563110351562,424
269,1455472056.82859373092651367188,416
270,1455472056.89685845375061035156,408
271,1455472056.96694684028625488281,400
272,1455472057.03913736343383789062,400
273,1455472057.10934972763061523438,392
274,1455472057.17805647850036621094,392
275,1455472057.247364044189453125,384
276,1455472057.31739640235900878906,384
277,1455472057.38675713539123535156,376
278,1455472057.45733284950256347656,376
279,1455472057.52892231941223144531,376
280,1455472057.59645223617553710938,376
281,1455472057.66773939132690429688,376
282,1455472057.73714423179626464844,376
283,1455472057.80744838714599609375,376
284,1455472057.87825083732604980469,376
285,1455472057.94684481620788574219,376
286,1455472058.01744008064270019531,376
287,1455472058.08810758590698242188,384
288,1455472058.15696692466735839844,384
289,1455472058.22804093360900878906,384
290,1455472058.29676222801208496094,392
291,1455472058.36708116531372070312,400
292,1455472058.43737745285034179688,400
293,1455472058.508106231689453125,408
294,1455472058.57769608497619628906,416
295,1455472058.64722204208374023438,424
296,1455472058.71765232086181640625,424
297,1455472058.78777146339416503906,432
298,1455472058.85737705230712890625,440
299,1455472058.928752899169921875,448
300,1455472058.99735307693481445312,456
301,1455472059.06731915473937988281,464
302,1455472059.13739490509033203125,472
303,1455472059.20690894126892089844,480
304,1455472059.27814817428588867188,488
305,1455472059.34792923927307128906,496
306,1455472059.41744875907897949219,512
307,1455472059.48739719390869140625,520
308,1455472059.55717587471008300781,528
309,1455472059.627285003662109375,536
310,1455472059.6963825225830078125,544
311,1455472059.76819944381713867188,544
312,1455472059.83669948577880859375,552
313,1455472059.9073085784912109375,560
314,1455472059.97932553291320800781,568
315,1455472060.04749274253845214844,576
316,1455472060.11731743812561035156,584
317,1455472060.18821692466735839844,584
318,1455472060.25733923912048339844,592
319,1455472060.32748198509216308594,592
320,1455472060.39785504341125488281,600
321,1455472060.46815419197082519531,600
322,1455472060.53648209571838378906,608
323,1455472060.608089447021484375,608
324,1455472060.67755842208862304688,608
325,1455472060.74740314483642578125,608
326,1455472060.81695246696472167969,608
327,1455472060.888759613037109375,608
328,1455472060.95692968368530273438,608
329,1455472061.02872419357299804688,608
330,1455472061.0971050262451171875,608
331,1455472061.16684055328369140625,608
332,1455472061.23779940605163574219,600
333,1455472061.30706071853637695312,600
334,1455472061.37717556953430175781,592
335,1455472061.4481487274169921875,592
336,1455472061.51741147041320800781,584
337,1455472061.58730912208557128906,584
338,1455472061.6574859619140625,576
339,1455472061.73095774650573730469,568
340,1455472061.796642303466796875,560
341,1455472061.86818861961364746094,552
342,1455472061.93690180778503417969,552
343,1455472062.00673937797546386719,496
344,1455472062.07859063148498535156,504
345,1455472062.14826488494873046875,512
346,1455472062.21653723716735839844,520
347,1455472062.28839850425720214844,528
348,1455472062.356716156005859375,536
349,1455472062.427654266357421875,544
350,1455472062.49748873710632324219,552
351,1455472062.569309234619140625,560
352,1455472062.63705515861511230469,560
353,1455472062.70818614959716796875,568
354,1455472062.77794575691223144531,576
355,1455472062.84697031974792480469,584
356,1455472062.91662311553955078125,584
357,1455472062.98718976974487304688,592
358,1455472063.05731105804443359375,600
359,1455472063.12791776657104492188,600
360,1455472063.19670081138610839844,600
361,1455472063.26638889312744140625,608
362,1455472063.33788561820983886719,608
363,1455472063.40899348258972167969,608
364,1455472063.47711038589477539062,608
365,1455472063.54813027381896972656,608
366,1455472063.61651945114135742188,608
367,1455472063.68695878982543945312,608
368,1455472063.75717854499816894531,608
369,1455472063.8276576995849609375,608
370,1455472063.89740777015686035156,608
371,1455472063.96903681755065917969,600
372,1455472064.03730297088623046875,600
373,1455472064.10712695121765136719,592
374,1455472064.17845201492309570312,592
375,1455472064.24939489364624023438,584
376,1455472064.31711626052856445312,584
377,1455472064.38791751861572265625,576
378,1455472064.45695376396179199219,568
379,1455472064.52771639823913574219,560
380,1455472064.5974273681640625,552
381,1455472064.66922473907470703125,544
382,1455472064.7367725372314453125,536
383,1455472064.80954909324645996094,528
384,1455472064.87751317024230957031,520
385,1455472064.94732236862182617188,512
386,1455472065.01883339881896972656,504
387,1455472065.08866524696350097656,496
388,1455472065.15711808204650878906,488
389,1455472065.22855830192565917969,480
390,1455472065.29726624488830566406,472
391,1455472065.36799097061157226562,464
392,1455472065.43683004379272460938,456
393,1455472065.50637054443359375,448
394,1455472065.57808184623718261719,440
395,1455472065.648113250732421875,432
396,1455472065.71695089340209960938,424
397,1455472065.78688144683837890625,416
398,1455472065.85750126838684082031,416
399,1455472065.92961215972900390625,408
400,1455472065.99673438072204589844,400
401,1455472066.06797528266906738281,400
402,1455472066.13709855079650878906,392
403,1455472066.20680284500122070312,384
404,1455472066.27832102775573730469,384
405,1455472066.34693503379821777344,376
406,1455472066.41722846031188964844,376
407,1455472066.48757719993591308594,376
408,1455472066.55742383003234863281,376
409,1455472066.62895846366882324219,376
410,1455472066.69734168052673339844,376
411,1455472066.76807618141174316406,376
412,1455472066.83725094795227050781,376
413,1455472066.90799975395202636719,376
414,1455472066.97752976417541503906,376
415,1455472067.04711031913757324219,376
416,1455472067.11812853813171386719,384
417,1455472067.18775105476379394531,384
418,1455472067.25726342201232910156,392
419,1455472067.32863354682922363281,392
420,1455472067.39684438705444335938,400
421,1455472067.46746015548706054688,408
422,1455472067.53815174102783203125,408
423,1455472067.60876441001892089844,416
424,1455472067.67813587188720703125,424
425,1455472067.74779057502746582031,432
426,1455472067.81647491455078125,440
427,1455472067.88707590103149414062,448
428,1455472067.95673274993896484375,456
429,1455472068.02787232398986816406,464
430,1455472068.09716272354125976562,472
431,1455472068.16865754127502441406,480
432,1455472068.2370548248291015625,488
433,1455472068.30694317817687988281,496
434,1455472068.37843561172485351562,504
435,1455472068.44661784172058105469,512
436,1455472068.51734662055969238281,520
437,1455472068.58816576004028320312,528
438,1455472068.65642333030700683594,536
439,1455472068.72796893119812011719,544
440,1455472068.79706358909606933594,552
441,1455472068.86917757987976074219,560
442,1455472068.93644428253173828125,568
443,1455472069.00755620002746582031,568
444,1455472069.07774639129638671875,576
445,1455472069.14712309837341308594,584
446,1455472069.21743369102478027344,592
447,1455472069.28732514381408691406,592
448,1455472069.35742712020874023438,600
449,1455472069.42858672142028808594,600
450,1455472069.49697828292846679688,608
451,1455472069.56725287437438964844,608
452,1455472069.63730025291442871094,608
453,1455472069.85601472854614257812,608
454,1455472069.86232042312622070312,608
455,1455472069.9277172088623046875,608
456,1455472069.99801874160766601562,608
457,1455472070.06893777847290039062,608
458,1455472070.13811945915222167969,608
459,1455472070.20950627326965332031,608
460,1455472070.27777552604675292969,600
461,1455472070.34751987457275390625,600
462,1455472070.41945290565490722656,592
463,1455472070.48947882652282714844,592
464,1455472070.55964350700378417969,584
465,1455472070.62769627571105957031,576
466,1455472070.69810986518859863281,568
467,1455472070.7679462432861328125,568
468,1455472070.83741426467895507812,560
469,1455472070.90993523597717285156,552
470,1455472070.97817134857177734375,544
471,1455472071.04750990867614746094,496
472,1455472071.11866426467895507812,504
473,1455472071.18716454505920410156,512
474,1455472071.26090478897094726562,520
475,1455472071.32709646224975585938,528
476,1455472071.39771270751953125,536
477,1455472071.46814608573913574219,544
478,1455472071.540348052978515625,552
479,1455472071.609226226806640625,560
480,1455472071.67819380760192871094,568
481,1455472071.74838232994079589844,576
482,1455472071.81726813316345214844,576
483,1455472071.88768219947814941406,584
484,1455472071.95866608619689941406,592
485,1455472072.02730703353881835938,592
486,1455472072.09799313545227050781,600
487,1455472072.16832232475280761719,600
488,1455472072.23758625984191894531,608
489,1455472072.30929780006408691406,608
490,1455472072.37729692459106445312,608
491,1455472072.44734668731689453125,608
492,1455472072.51847696304321289062,608
493,1455472072.58810377120971679688,608
494,1455472072.66037487983703613281,608
495,1455472072.72795009613037109375,608
496,1455472072.79786396026611328125,608
497,1455472072.86820816993713378906,608
498,1455472072.9377899169921875,608
499,1455472073.00880074501037597656,600
500,1455472073.07765913009643554688,600
501,1455472073.14750361442565917969,592
502,1455472073.21944117546081542969,584
503,1455472073.28709840774536132812,584
