id, time (s), size (bits)
0,1455472038.68839883804321289062,432
1,1455472038.76804590225219726562,424
2,1455472038.848529815673828125,416
3,1455472038.92758965492248535156,408
4,1455472039.00911688804626464844,400
5,1455472039.08896017074584960938,392
6,1455472039.16849827766418457031,392
7,1455472039.24811267852783203125,384
8,1455472039.32885217666625976562,384
9,1455472039.4099712371826171875,376
10,1455472039.48879957199096679688,376
11,1455472039.56958508491516113281,376
12,1455472039.64834475517272949219,376
13,1455472039.72926545143127441406,376
14,1455472039.80950760841369628906,376
15,1455472039.88829636573791503906,376
16,1455472039.9680118560791015625,376
17,1455472040.04991316795349121094,376
18,1455472040.12840414047241210938,384
19,1455472040.20943975448608398438,384
20,1455472040.28911066055297851562,392
21,1455472040.36836647987365722656,400
22,1455472040.44737005233764648438,400
23,1455472040.52818465232849121094,408
24,1455472040.60840201377868652344,416
25,1455472040.68831491470336914062,424
26,1455472040.768711090087890625,432
27,1455472040.84915471076965332031,440
28,1455472040.92814755439758300781,448
29,1455472041.00981473922729492188,456
30,1455472041.08814191818237304688,472
31,1455472041.16763281822204589844,480
32,1455472041.24895787239074707031,488
33,1455472041.32741594314575195312,496
34,1455472041.41068243980407714844,504
35,1455472041.48912668228149414062,520
36,1455472041.56954193115234375,528
37,1455472041.64816617965698242188,536
38,1455472041.72886347770690917969,544
39,1455472041.80843043327331542969,552
40,1455472041.88786458969116210938,560
41,1455472041.96944093704223632812,568
42,1455472042.04783678054809570312,576
43,1455472042.12785005569458007812,584
44,1455472042.209323883056640625,584
45,1455472042.2881603240966796875,592
46,1455472042.36814737319946289062,600
47,1455472042.44822812080383300781,600
48,1455472042.52876639366149902344,608
49,1455472042.60937738418579101562,608
50,1455472042.6884250640869140625,608
51,1455472042.76766991615295410156,608
52,1455472042.84785938262939453125,608
53,1455472042.92894315719604492188,608
54,1455472043.01056671142578125,608
55,1455472043.08975052833557128906,608
56,1455472043.1688823699951171875,608
57,1455472043.24812746047973632812,600
58,1455472043.32819604873657226562,600
59,1455472043.40925836563110351562,592
60,1455472043.48825836181640625,592
61,1455472043.56786227226257324219,584
62,1455472043.64912104606628417969,576
63,1455472043.728260040283203125,568
64,1455472043.81064462661743164062,560
65,1455472043.8888397216796875,552
66,1455472043.96853184700012207031,544
67,1455472044.04782605171203613281,496
68,1455472044.12920594215393066406,504
69,1455472044.21094179153442382812,520
70,1455472044.28748154640197753906,528
71,1455472044.36838841438293457031,536
72,1455472044.44799470901489257812,544
73,1455472044.52862834930419921875,552
74,1455472044.60939049720764160156,560
75,1455472044.68819499015808105469,568
76,1455472044.76907229423522949219,576
77,1455472044.84920096397399902344,584
78,1455472044.92831659317016601562,592
79,1455472045.0102519989013671875,592
80,1455472045.08851480484008789062,600
81,1455472045.1675052642822265625,600
82,1455472045.24782299995422363281,608
83,1455472045.3309192657470703125,608
84,1455472045.409160614013671875,608
85,1455472045.48777818679809570312,608
86,1455472045.56913161277770996094,608
87,1455472045.64993143081665039062,608
88,1455472045.72837972640991210938,608
89,1455472045.80928158760070800781,608
90,1455472045.8910064697265625,608
91,1455472045.96785068511962890625,600
92,1455472046.04927992820739746094,600
93,1455472046.12985730171203613281,592
94,1455472046.20890736579895019531,592
95,1455472046.29063630104064941406,584
96,1455472046.36829471588134765625,576
97,1455472046.44940614700317382812,568
98,1455472046.52844095230102539062,560
99,1455472046.60838437080383300781,552
100,1455472046.68801021575927734375,544
101,1455472046.76890134811401367188,536
102,1455472046.84819364547729492188,528
103,1455472046.92789769172668457031,520
104,1455472047.0106201171875,504
105,1455472047.08839249610900878906,496
106,1455472047.16849064826965332031,488
107,1455472047.24874091148376464844,480
108,1455472047.32780957221984863281,472
109,1455472047.410717010498046875,464
110,1455472047.48879909515380859375,448
111,1455472047.56903934478759765625,440
112,1455472047.64862537384033203125,432
113,1455472047.72873926162719726562,424
114,1455472047.80868554115295410156,416
115,1455472047.88759922981262207031,408
116,1455472047.96914505958557128906,400
117,1455472048.04750990867614746094,400
118,1455472048.12935209274291992188,392
119,1455472048.209339141845703125,384
120,1455472048.28838562965393066406,384
121,1455472048.36824750900268554688,376
122,1455472048.44858717918395996094,376
123,1455472048.52850389480590820312,376
124,1455472048.610614776611328125,376
125,1455472048.69000697135925292969,376
126,1455472048.76768565177917480469,376
127,1455472048.84792208671569824219,376
128,1455472048.92908310890197753906,376
129,1455472049.00987958908081054688,376
130,1455472049.08759975433349609375,384
131,1455472049.16939687728881835938,384
132,1455472049.2487773895263671875,392
133,1455472049.32794237136840820312,392
134,1455472049.40915822982788085938,400
135,1455472049.48837184906005859375,408
136,1455472049.56844758987426757812,416
137,1455472049.64928460121154785156,424
138,1455472049.72823858261108398438,432
139,1455472049.81127882003784179688,440
140,1455472049.88926172256469726562,448
141,1455472049.96857905387878417969,456
142,1455472050.04770207405090332031,464
143,1455472050.12931227684020996094,472
144,1455472050.20897817611694335938,480
145,1455472050.28836750984191894531,496
146,1455472050.36985802650451660156,504
147,1455472050.44794559478759765625,512
148,1455472050.52793860435485839844,520
149,1455472050.61141204833984375,528
150,1455472050.68816065788269042969,536
151,1455472050.76841139793395996094,544
152,1455472050.84910368919372558594,560
153,1455472050.92862534523010253906,568
154,1455472051.00833797454833984375,568
155,1455472051.08931756019592285156,576
156,1455472051.16835427284240722656,584
157,1455472051.24764919281005859375,592
158,1455472051.32898020744323730469,592
159,1455472051.41088557243347167969,600
160,1455472051.48905897140502929688,608
161,1455472051.56839466094970703125,608
162,1455472051.64792299270629882812,608
163,1455472051.72777509689331054688,608
164,1455472051.80915737152099609375,608
165,1455472051.88813614845275878906,608
166,1455472051.96821713447570800781,608
167,1455472052.04976534843444824219,608
168,1455472052.1282806396484375,608
169,1455472052.20959877967834472656,608
170,1455472052.28928422927856445312,600
171,1455472052.36781334877014160156,600
172,1455472052.44795727729797363281,592
173,1455472052.52902889251708984375,584
174,1455472052.610294342041015625,576
175,1455472052.68778061866760253906,576
176,1455472052.76942944526672363281,568
177,1455472052.84788918495178222656,560
178,1455472052.92791128158569335938,552
179,1455472053.01103067398071289062,496
180,1455472053.08778858184814453125,504
181,1455472053.1693115234375,512
182,1455472053.24892759323120117188,520
183,1455472053.32809853553771972656,528
184,1455472053.41021609306335449219,536
185,1455472053.48900103569030761719,552
186,1455472053.56788659095764160156,560
187,1455472053.64766979217529296875,568
188,1455472053.73004961013793945312,576
189,1455472053.80831789970397949219,576
190,1455472053.88833737373352050781,584
191,1455472053.96850991249084472656,592
192,1455472054.04806494712829589844,592
193,1455472054.12851548194885253906,600
194,1455472054.209545135498046875,608
195,1455472054.28956556320190429688,608
196,1455472054.36827993392944335938,608
197,1455472054.44859647750854492188,608
198,1455472054.52784824371337890625,608
199,1455472054.60876560211181640625,608
200,1455472054.68830609321594238281,608
201,1455472054.76763558387756347656,608
202,1455472054.84889626502990722656,608
203,1455472054.9289569854736328125,608
204,1455472055.00975346565246582031,600
205,1455472055.08819365501403808594,600
206,1455472055.16882228851318359375,592
207,1455472055.24793124198913574219,584
208,1455472055.32837319374084472656,576
209,1455472055.41044735908508300781,576
210,1455472055.48811769485473632812,568
211,1455472055.56759119033813476562,560
212,1455472055.64916133880615234375,552
213,1455472055.7292346954345703125,544
214,1455472055.8088550567626953125,528
215,1455472055.88893485069274902344,520
216,1455472055.96889662742614746094,512
217,1455472056.0474834442138671875,504
218,1455472056.12858510017395019531,496
219,1455472056.20888423919677734375,480
220,1455472056.28875899314880371094,472
221,1455472056.36942815780639648438,464
222,1455472056.44749426841735839844,456
223,1455472056.52868580818176269531,448
224,1455472056.61060452461242675781,440
225,1455472056.68774175643920898438,432
226,1455472056.767887115478515625,424
227,1455472056.84917879104614257812,416
228,1455472056.92852473258972167969,408
229,1455472057.00893259048461914062,400
230,1455472057.08919668197631835938,392
231,1455472057.16800856590270996094,392
232,1455472057.24832105636596679688,384
233,1455472057.32926726341247558594,384
234,1455472057.40859198570251464844,376
235,1455472057.48818349838256835938,376
236,1455472057.56956911087036132812,376
237,1455472057.64842939376831054688,376
238,1455472057.72845125198364257812,376
239,1455472057.8094959259033203125,376
240,1455472057.88816428184509277344,376
241,1455472057.96905851364135742188,376
242,1455472058.04906296730041503906,376
243,1455472058.12758302688598632812,384
244,1455472058.21042132377624511719,384
245,1455472058.28918910026550292969,392
246,1455472058.3680248260498046875,400
247,1455472058.44780755043029785156,400
248,1455472058.52858829498291015625,408
249,1455472058.60994553565979003906,416
250,1455472058.68771076202392578125,424
251,1455472058.76967525482177734375,432
252,1455472058.8479900360107421875,440
253,1455472058.92752909660339355469,448
254,1455472059.00921964645385742188,456
255,1455472059.08768868446350097656,472
256,1455472059.16759514808654785156,480
257,1455472059.24852466583251953125,488
258,1455472059.32870626449584960938,496
259,1455472059.41192007064819335938,504
260,1455472059.48895883560180664062,520
261,1455472059.56821966171264648438,528
262,1455472059.64842104911804199219,536
263,1455472059.72909688949584960938,544
264,1455472059.81019639968872070312,552
265,1455472059.88836693763732910156,560
266,1455472059.96847367286682128906,568
267,1455472060.04784393310546875,576
268,1455472060.128269195556640625,584
269,1455472060.20958542823791503906,584
270,1455472060.28754544258117675781,592
271,1455472060.36794281005859375,600
272,1455472060.44950604438781738281,600
273,1455472060.52831721305847167969,608
274,1455472060.60859131813049316406,608
275,1455472060.68914794921875,608
276,1455472060.76807475090026855469,608
277,1455472060.84815287590026855469,608
278,1455472060.92884469032287597656,608
279,1455472061.00922107696533203125,608
280,1455472061.08775019645690917969,608
281,1455472061.16931939125061035156,608
282,1455472061.24835133552551269531,600
283,1455472061.32794451713562011719,600
284,1455472061.40930080413818359375,592
285,1455472061.48848819732666015625,592
286,1455472061.56944155693054199219,584
287,1455472061.64923143386840820312,576
288,1455472061.7278308868408203125,568
289,1455472061.80953288078308105469,560
290,1455472061.88928914070129394531,552
291,1455472061.96808457374572753906,544
292,1455472062.04813027381896972656,496
293,1455472062.12920451164245605469,504
294,1455472062.21087574958801269531,520
295,1455472062.28849124908447265625,528
296,1455472062.36885142326354980469,536
297,1455472062.44764804840087890625,544
298,1455472062.52755331993103027344,552
299,1455472062.61082673072814941406,560
300,1455472062.68918108940124511719,568
301,1455472062.7679233551025390625,576
302,1455472062.84890079498291015625,584
303,1455472062.92954587936401367188,592
304,1455472063.0089855194091796875,592
305,1455472063.08846378326416015625,600
306,1455472063.16768383979797363281,600
307,1455472063.24878072738647460938,608
308,1455472063.33028268814086914062,608
309,1455472063.40850806236267089844,608
310,1455472063.48786234855651855469,608
311,1455472063.56987714767456054688,608
312,1455472063.64818096160888671875,608
313,1455472063.72737908363342285156,608
314,1455472063.81128406524658203125,608
315,1455472063.88786864280700683594,608
316,1455472063.96736836433410644531,600
317,1455472064.04903435707092285156,600
318,1455472064.12763166427612304688,592
319,1455472064.20876288414001464844,592
320,1455472064.28925943374633789062,584
321,1455472064.36874556541442871094,576
322,1455472064.44809937477111816406,568
323,1455472064.52881574630737304688,560
324,1455472064.60905313491821289062,552
325,1455472064.68803000450134277344,544
326,1455472064.76854610443115234375,536
327,1455472064.84752511978149414062,528
328,1455472064.92929172515869140625,520
329,1455472065.00987148284912109375,504
330,1455472065.08775210380554199219,496
331,1455472065.16740775108337402344,488
332,1455472065.24877285957336425781,480
333,1455472065.32790040969848632812,472
334,1455472065.41040205955505371094,464
335,1455472065.4892520904541015625,448
336,1455472065.56786179542541503906,440
337,1455472065.64757585525512695312,432
338,1455472065.72920894622802734375,424
339,1455472065.80916714668273925781,416
340,1455472065.88780832290649414062,408
341,1455472065.96889448165893554688,400
342,1455472066.04856657981872558594,400
343,1455472066.12965059280395507812,392
344,1455472066.20954275131225585938,384
345,1455472066.28833365440368652344,384
346,1455472066.36790323257446289062,376
347,1455472066.44905924797058105469,376
348,1455472066.52779078483581542969,376
349,1455472066.611698150634765625,376
350,1455472066.68856787681579589844,376
351,1455472066.76766848564147949219,376
352,1455472066.84782934188842773438,376
353,1455472066.92863512039184570312,376
354,1455472067.00945281982421875,376
355,1455472067.08774065971374511719,384
356,1455472067.1694011688232421875,384
357,1455472067.24808096885681152344,392
358,1455472067.32743191719055175781,392
359,1455472067.40934705734252929688,400
360,1455472067.488368988037109375,408
361,1455472067.56827664375305175781,416
362,1455472067.64872860908508300781,424
363,1455472067.72834467887878417969,432
364,1455472067.81034398078918457031,440
365,1455472067.88885807991027832031,448
366,1455472067.96817302703857421875,456
367,1455472068.04783678054809570312,464
368,1455472068.12846875190734863281,472
369,1455472068.21171998977661132812,480
370,1455472068.28923678398132324219,496
371,1455472068.36899638175964355469,504
372,1455472068.44848227500915527344,512
373,1455472068.52739500999450683594,520
374,1455472068.6099224090576171875,528
375,1455472068.688312530517578125,536
376,1455472068.76804447174072265625,544
377,1455472068.84981250762939453125,560
378,1455472068.92770814895629882812,568
379,1455472069.00993704795837402344,568
380,1455472069.08849406242370605469,576
381,1455472069.16754746437072753906,584
382,1455472069.24791049957275390625,592
383,1455472069.32927036285400390625,592
384,1455472069.41155362129211425781,600
385,1455472069.48919653892517089844,608
386,1455472069.56849741935729980469,608
387,1455472069.64793372154235839844,608
388,1455472069.72744417190551757812,608
389,1455472069.81114029884338378906,608
390,1455472069.88824701309204101562,608
391,1455472069.96899867057800292969,608
392,1455472070.04862165451049804688,608
393,1455472070.12810945510864257812,608
394,1455472070.20848202705383300781,608
395,1455472070.29073619842529296875,600
396,1455472070.36841845512390136719,600
397,1455472070.44797563552856445312,592
398,1455472070.52994632720947265625,584
399,1455472070.60975408554077148438,576
400,1455472070.68959307670593261719,576
401,1455472070.76849770545959472656,568
402,1455472070.93842053413391113281,552
403,1455472070.94569826126098632812,544
404,1455472071.00879383087158203125,496
405,1455472071.09124827384948730469,504
406,1455472071.16844725608825683594,512
407,1455472071.24861741065979003906,520
408,1455472071.32841467857360839844,528
409,1455472071.40776658058166503906,536
410,1455472071.48940372467041015625,552
411,1455472071.568195343017578125,560
412,1455472071.64899611473083496094,568
413,1455472071.72994232177734375,576
414,1455472071.80897688865661621094,576
415,1455472071.88854384422302246094,584
416,1455472071.96927356719970703125,592
417,1455472072.0506458282470703125,600
418,1455472072.12825536727905273438,600
419,1455472072.21013140678405761719,608
420,1455472072.28911375999450683594,608
421,1455472072.36794447898864746094,608
422,1455472072.44868946075439453125,608
423,1455472072.52923727035522460938,608
424,1455472072.61021447181701660156,608
425,1455472072.68928050994873046875,608
426,1455472072.76897954940795898438,608
427,1455472072.84805178642272949219,608
428,1455472072.92907476425170898438,608
429,1455472073.00933527946472167969,600
430,1455472073.08842110633850097656,600
431,1455472073.16960024833679199219,592
432,1455472073.24776601791381835938,584
433,1455472073.32861471176147460938,576
434,1455472073.40942430496215820312,576
435,1455472073.488842010498046875,568
436,1455472073.56781339645385742188,560
437,1455472073.64956498146057128906,552
438,1455472073.72838616371154785156,544
439,1455472073.80749821662902832031,528
440,1455472073.89014458656311035156,520
441,1455472073.96822857856750488281,512
442,1455472074.04838681221008300781,504
443,1455472074.128692626953125,496
444,1455472074.20770239830017089844,488
445,1455472074.28901338577270507812,472
446,1455472074.36954593658447265625,464
447,1455472074.44904065132141113281,456
448,1455472074.52855134010314941406,448
449,1455472074.60933852195739746094,440
450,1455472074.69146060943603515625,432
451,1455472074.76985788345336914062,424
452,1455472074.85027194023132324219,416
453,1455472074.92772197723388671875,408
454,1455472075.00915861129760742188,400
455,1455472075.08915472030639648438,392
456,1455472075.16781949996948242188,392
457,1455472075.24784755706787109375,384
458,1455472075.329662322998046875,384
459,1455472075.40810918807983398438,376
460,1455472075.48918867111206054688,376
461,1455472075.57006859779357910156,376
462,1455472075.64798045158386230469,376
463,1455472075.72814989089965820312,376
464,1455472075.80906200408935546875,376
465,1455472075.88888978958129882812,376
466,1455472075.96773862838745117188,376
467,1455472076.04892992973327636719,376
468,1455472076.12954998016357421875,384
469,1455472076.208141326904296875,384
470,1455472076.2897624969482421875,392
471,1455472076.36747241020202636719,400
472,1455472076.447971343994140625,400
473,1455472076.52968072891235351562,408
474,1455472076.6084690093994140625,416
475,1455472076.68919444084167480469,424
476,1455472076.76874613761901855469,432
477,1455472076.84803485870361328125,440
478,1455472076.92853498458862304688,448
479,1455472077.00931453704833984375,456
480,1455472077.08980464935302734375,472
481,1455472077.16780543327331542969,480
482,1455472077.24924802780151367188,488
483,1455472077.32805418968200683594,496
484,1455472077.40844607353210449219,504
485,1455472077.48905539512634277344,520
486,1455472077.56845593452453613281,528
487,1455472077.64779734611511230469,536
488,1455472077.72940969467163085938,544
489,1455472077.80928897857666015625,552
490,1455472077.88867092132568359375,560
491,1455472077.9694156646728515625,568
492,1455472078.04763960838317871094,576
493,1455472078.12870240211486816406,584
494,1455472078.20893454551696777344,584
495,1455472078.29035782814025878906,592
496,1455472078.36861705780029296875,600
497,1455472078.4490833282470703125,600
498,1455472078.52773594856262207031,608
499,1455472078.6081485748291015625,608
500,1455472078.69070577621459960938,608
501,1455472078.76831960678100585938,608
502,1455472078.84745073318481445312,608
503,1455472078.92993044853210449219,608
504,1455472079.00774931907653808594,608
