id, time (s), size (bits)
0,1455472038.00710701942443847656,512
1,1455472038.08651709556579589844,496
2,1455472038.1674709320068359375,488
3,1455472038.2471637725830078125,480
4,1455472038.32720518112182617188,472
5,1455472038.40837121009826660156,464
6,1455472038.48781442642211914062,448
7,1455472038.56930327415466308594,440
8,1455472038.64790558815002441406,432
9,1455472038.72736001014709472656,424
10,1455472038.80675363540649414062,416
11,1455472038.88833403587341308594,408
12,1455472038.96714258193969726562,400
13,1455472039.04793381690979003906,400
14,1455472039.12888860702514648438,392
15,1455472039.20703816413879394531,384
16,1455472039.28753161430358886719,384
17,1455472039.36791896820068359375,376
18,1455472039.44680619239807128906,376
19,1455472039.52887725830078125,376
20,1455472039.60817766189575195312,376
21,1455472039.68750905990600585938,376
22,1455472039.76767277717590332031,376
23,1455472039.84824681282043457031,376
24,1455472039.92738080024719238281,376
25,1455472040.00732183456420898438,376
26,1455472040.08831524848937988281,384
27,1455472040.167728424072265625,384
28,1455472040.24811148643493652344,392
29,1455472040.32825064659118652344,392
30,1455472040.40685248374938964844,400
31,1455472040.48645663261413574219,408
32,1455472040.56766796112060546875,416
33,1455472040.64727711677551269531,424
34,1455472040.72838854789733886719,432
35,1455472040.80754852294921875,440
36,1455472040.88751316070556640625,448
37,1455472040.96882462501525878906,456
38,1455472041.04804587364196777344,464
39,1455472041.12755584716796875,472
40,1455472041.20696043968200683594,480
41,1455472041.28869605064392089844,496
42,1455472041.36695432662963867188,504
43,1455472041.44685983657836914062,512
44,1455472041.52838826179504394531,520
45,1455472041.60709452629089355469,528
46,1455472041.68876886367797851562,536
47,1455472041.76838254928588867188,544
48,1455472041.848255157470703125,560
49,1455472041.92742919921875,568
50,1455472042.00799202919006347656,568
51,1455472042.08742642402648925781,576
52,1455472042.16725230216979980469,584
53,1455472042.24829697608947753906,592
54,1455472042.32790827751159667969,592
55,1455472042.40789389610290527344,600
56,1455472042.48751473426818847656,608
57,1455472042.56734776496887207031,608
58,1455472042.64701414108276367188,608
59,1455472042.72877240180969238281,608
60,1455472042.80743074417114257812,608
61,1455472042.88846325874328613281,608
62,1455472042.96836543083190917969,608
63,1455472043.04707956314086914062,608
64,1455472043.12775015830993652344,608
65,1455472043.20790052413940429688,608
66,1455472043.28687310218811035156,600
67,1455472043.36889100074768066406,600
68,1455472043.4476299285888671875,592
69,1455472043.52863383293151855469,584
70,1455472043.6067676544189453125,576
71,1455472043.68766546249389648438,576
72,1455472043.7668743133544921875,568
73,1455472043.84714818000793457031,560
74,1455472043.927947998046875,552
75,1455472044.00671172142028808594,496
76,1455472044.09001874923706054688,504
77,1455472044.16746830940246582031,512
78,1455472044.2466106414794921875,520
79,1455472044.32961153984069824219,528
80,1455472044.40840435028076171875,536
81,1455472044.48732542991638183594,552
82,1455472044.56934881210327148438,560
83,1455472044.64841818809509277344,568
84,1455472044.72913289070129394531,568
85,1455472044.80693197250366210938,576
86,1455472044.88833093643188476562,584
87,1455472044.96747851371765136719,592
88,1455472045.04882192611694335938,600
89,1455472045.12881183624267578125,600
90,1455472045.20821166038513183594,608
91,1455472045.28839898109436035156,608
92,1455472045.368183135986328125,608
93,1455472045.44682431221008300781,608
94,1455472045.5290813446044921875,608
95,1455472045.60785675048828125,608
96,1455472045.68833184242248535156,608
97,1455472045.76822996139526367188,608
98,1455472045.84761905670166015625,608
99,1455472045.92802405357360839844,608
100,1455472046.00741434097290039062,600
101,1455472046.08760213851928710938,600
102,1455472046.16688895225524902344,592
103,1455472046.24697113037109375,584
104,1455472046.32878470420837402344,576
105,1455472046.40670728683471679688,576
106,1455472046.4867401123046875,568
107,1455472046.56800889968872070312,560
108,1455472046.6475315093994140625,552
109,1455472046.72762775421142578125,544
110,1455472046.81005191802978515625,528
111,1455472046.88758063316345214844,520
112,1455472046.96712541580200195312,512
113,1455472047.04766798019409179688,504
114,1455472047.12754058837890625,496
115,1455472047.20699357986450195312,488
116,1455472047.28790044784545898438,472
117,1455472047.36735963821411132812,464
118,1455472047.44787144660949707031,456
119,1455472047.52988791465759277344,448
120,1455472047.60715532302856445312,440
121,1455472047.68853688240051269531,432
122,1455472047.76814723014831542969,424
123,1455472047.84746408462524414062,416
124,1455472047.92761516571044921875,408
125,1455472048.00972533226013183594,400
126,1455472048.08827662467956542969,392
127,1455472048.1665019989013671875,392
128,1455472048.24816536903381347656,384
129,1455472048.32745265960693359375,384
130,1455472048.40676593780517578125,376
131,1455472048.48787045478820800781,376
132,1455472048.56791210174560546875,376
133,1455472048.64877247810363769531,376
134,1455472048.72826647758483886719,376
135,1455472048.8066768646240234375,376
136,1455472048.88701319694519042969,376
137,1455472048.96823740005493164062,376
138,1455472049.04669880867004394531,376
139,1455472049.13024353981018066406,384
140,1455472049.20765185356140136719,384
141,1455472049.28722739219665527344,392
142,1455472049.36824440956115722656,400
143,1455472049.44843053817749023438,400
144,1455472049.5274906158447265625,408
145,1455472049.609375,416
146,1455472049.68909692764282226562,424
147,1455472049.76746892929077148438,432
148,1455472049.8474369049072265625,440
149,1455472049.92888545989990234375,448
150,1455472050.00776386260986328125,456
151,1455472050.08927845954895019531,472
152,1455472050.16804814338684082031,480
153,1455472050.24753022193908691406,488
154,1455472050.32893896102905273438,496
155,1455472050.40782523155212402344,504
156,1455472050.4865169525146484375,520
157,1455472050.56695795059204101562,528
158,1455472050.64763712882995605469,536
159,1455472050.72779321670532226562,544
160,1455472050.80859065055847167969,552
161,1455472050.88767361640930175781,560
162,1455472050.96726751327514648438,568
163,1455472051.04897809028625488281,576
164,1455472051.128231048583984375,584
165,1455472051.20670723915100097656,584
166,1455472051.2886829376220703125,592
167,1455472051.36890506744384765625,600
168,1455472051.446628570556640625,600
169,1455472051.52759051322937011719,608
170,1455472051.60830545425415039062,608
171,1455472051.68729496002197265625,608
172,1455472051.76666283607482910156,608
173,1455472051.84844756126403808594,608
174,1455472051.92849683761596679688,608
175,1455472052.00673961639404296875,608
176,1455472052.08742380142211914062,608
177,1455472052.16691827774047851562,608
178,1455472052.2465305328369140625,600
179,1455472052.32841968536376953125,600
180,1455472052.40739870071411132812,592
181,1455472052.49002718925476074219,592
182,1455472052.56835532188415527344,584
183,1455472052.64656925201416015625,576
184,1455472052.7275447845458984375,568
185,1455472052.80789995193481445312,560
186,1455472052.8866119384765625,552
187,1455472052.96840596199035644531,544
188,1455472053.04868769645690917969,496
189,1455472053.12729477882385253906,504
190,1455472053.20715546607971191406,520
191,1455472053.28779935836791992188,528
192,1455472053.36705279350280761719,536
193,1455472053.4479618072509765625,544
194,1455472053.52828502655029296875,552
195,1455472053.60755157470703125,560
196,1455472053.68910050392150878906,568
197,1455472053.76827239990234375,576
198,1455472053.84809184074401855469,584
199,1455472053.92832589149475097656,592
200,1455472054.00868654251098632812,592
201,1455472054.08755803108215332031,600
202,1455472054.16992712020874023438,600
203,1455472054.24798321723937988281,608
204,1455472054.32814717292785644531,608
205,1455472054.40694308280944824219,608
206,1455472054.48823475837707519531,608
207,1455472054.56699252128601074219,608
208,1455472054.64839696884155273438,608
209,1455472054.72950696945190429688,608
210,1455472054.80654835700988769531,608
211,1455472054.88731169700622558594,608
212,1455472054.96813440322875976562,600
213,1455472055.04676866531372070312,600
214,1455472055.12810564041137695312,592
215,1455472055.20806431770324707031,592
216,1455472055.28801321983337402344,584
217,1455472055.36911678314208984375,576
218,1455472055.44833040237426757812,568
219,1455472055.5306720733642578125,560
220,1455472055.60646724700927734375,552
221,1455472055.68813657760620117188,544
222,1455472055.76753330230712890625,536
223,1455472055.84753465652465820312,528
224,1455472055.92831707000732421875,520
225,1455472056.00774502754211425781,512
226,1455472056.08870863914489746094,496
227,1455472056.16836047172546386719,488
228,1455472056.24748110771179199219,480
229,1455472056.3278408050537109375,472
230,1455472056.40863180160522460938,464
231,1455472056.48696136474609375,448
232,1455472056.56703639030456542969,440
233,1455472056.64825797080993652344,432
234,1455472056.72901105880737304688,424
235,1455472056.80700564384460449219,416
236,1455472056.88775873184204101562,408
237,1455472056.967792510986328125,400
238,1455472057.04809999465942382812,400
239,1455472057.12860989570617675781,392
240,1455472057.20654058456420898438,384
241,1455472057.28666210174560546875,384
242,1455472057.36847257614135742188,376
243,1455472057.44700098037719726562,376
244,1455472057.52959942817687988281,376
245,1455472057.60768532752990722656,376
246,1455472057.68706297874450683594,376
247,1455472057.76880216598510742188,376
248,1455472057.8476657867431640625,376
249,1455472057.92755460739135742188,376
250,1455472058.00740671157836914062,376
251,1455472058.08873772621154785156,384
252,1455472058.16688275337219238281,384
253,1455472058.24730944633483886719,392
254,1455472058.32865643501281738281,392
255,1455472058.40732240676879882812,400
256,1455472058.48882412910461425781,408
257,1455472058.56837129592895507812,416
258,1455472058.64815974235534667969,424
259,1455472058.72933077812194824219,432
260,1455472058.80809497833251953125,440
261,1455472058.88679027557373046875,448
262,1455472058.96717309951782226562,456
263,1455472059.04807281494140625,464
264,1455472059.12763118743896484375,472
265,1455472059.20792174339294433594,480
266,1455472059.2877635955810546875,496
267,1455472059.36707973480224609375,504
268,1455472059.44799208641052246094,512
269,1455472059.52858185768127441406,520
270,1455472059.60709881782531738281,528
271,1455472059.68668961524963378906,536
272,1455472059.76894426345825195312,552
273,1455472059.84726095199584960938,560
274,1455472059.9336414337158203125,568
275,1455472060.00842261314392089844,568
276,1455472060.08716487884521484375,576
277,1455472060.1672763824462890625,584
278,1455472060.24816679954528808594,592
279,1455472060.32814955711364746094,592
280,1455472060.40695405006408691406,600
281,1455472060.48839306831359863281,608
282,1455472060.56723308563232421875,608
283,1455472060.64709830284118652344,608
284,1455472060.72838282585144042969,608
285,1455472060.80740666389465332031,608
286,1455472060.88972115516662597656,608
287,1455472060.96785807609558105469,608
288,1455472061.04711318016052246094,608
289,1455472061.12980818748474121094,608
290,1455472061.20849680900573730469,608
291,1455472061.28702187538146972656,600
292,1455472061.36887216567993164062,600
293,1455472061.44889330863952636719,592
294,1455472061.52750253677368164062,584
295,1455472061.60750818252563476562,576
296,1455472061.68788313865661621094,576
297,1455472061.767299652099609375,568
298,1455472061.84799051284790039062,560
299,1455472061.92840933799743652344,552
300,1455472062.00770592689514160156,496
301,1455472062.08873677253723144531,504
302,1455472062.16836881637573242188,512
303,1455472062.24711632728576660156,520
304,1455472062.329402923583984375,528
305,1455472062.40833997726440429688,536
306,1455472062.48685503005981445312,552
307,1455472062.57025051116943359375,560
308,1455472062.64818620681762695312,568
309,1455472062.72861480712890625,568
310,1455472062.80705022811889648438,576
311,1455472062.8883266448974609375,584
312,1455472062.96724677085876464844,592
313,1455472063.04801869392395019531,592
314,1455472063.12924408912658691406,600
315,1455472063.20679593086242675781,608
316,1455472063.28760814666748046875,608
317,1455472063.36793804168701171875,608
318,1455472063.44712519645690917969,608
319,1455472063.52990603446960449219,608
320,1455472063.60847043991088867188,608
321,1455472063.68780732154846191406,608
322,1455472063.76719450950622558594,608
323,1455472063.84768629074096679688,608
324,1455472063.93035602569580078125,608
325,1455472064.00723218917846679688,600
326,1455472064.08822512626647949219,600
327,1455472064.16651463508605957031,592
328,1455472064.25026559829711914062,584
329,1455472064.32891941070556640625,576
330,1455472064.40828561782836914062,576
331,1455472064.48848080635070800781,568
332,1455472064.5678310394287109375,560
333,1455472064.64734578132629394531,552
334,1455472064.72930097579956054688,544
335,1455472064.81031155586242675781,528
336,1455472064.88734078407287597656,520
337,1455472064.96874284744262695312,512
338,1455472065.0480899810791015625,504
339,1455472065.12788748741149902344,496
340,1455472065.20847582817077636719,480
341,1455472065.2880802154541015625,472
342,1455472065.36895513534545898438,464
343,1455472065.44927692413330078125,456
344,1455472065.52965521812438964844,448
345,1455472065.60729742050170898438,440
346,1455472065.68870067596435546875,432
347,1455472065.76769256591796875,424
348,1455472065.84717488288879394531,416
349,1455472065.93026423454284667969,408
350,1455472066.00838494300842285156,400
351,1455472066.08860445022583007812,392
352,1455472066.168636322021484375,392
353,1455472066.24790143966674804688,384
354,1455472066.32774639129638671875,384
355,1455472066.4079837799072265625,376
356,1455472066.48826050758361816406,376
357,1455472066.56735968589782714844,376
358,1455472066.64688515663146972656,376
359,1455472066.72837710380554199219,376
360,1455472066.80679917335510253906,376
361,1455472066.88867902755737304688,376
362,1455472066.9684047698974609375,376
363,1455472067.0480213165283203125,376
364,1455472067.127536773681640625,384
365,1455472067.20792746543884277344,384
366,1455472067.28668093681335449219,392
367,1455472067.36712312698364257812,400
368,1455472067.44816350936889648438,400
369,1455472067.52758026123046875,408
370,1455472067.60965824127197265625,416
371,1455472067.687381744384765625,424
372,1455472067.76703882217407226562,432
373,1455472067.84861636161804199219,440
374,1455472067.92800164222717285156,448
375,1455472068.00712680816650390625,456
376,1455472068.08872365951538085938,472
377,1455472068.16939187049865722656,480
378,1455472068.24716448783874511719,488
379,1455472068.32824015617370605469,496
380,1455472068.40799689292907714844,504
381,1455472068.48821854591369628906,520
382,1455472068.566707611083984375,528
383,1455472068.6483821868896484375,536
384,1455472068.72864770889282226562,544
385,1455472068.8072509765625,552
386,1455472068.88802790641784667969,560
387,1455472068.96744465827941894531,568
388,1455472069.04742121696472167969,576
389,1455472069.12869882583618164062,584
390,1455472069.20736432075500488281,584
391,1455472069.28817629814147949219,592
392,1455472069.36767315864562988281,600
393,1455472069.44695425033569335938,600
394,1455472069.52723598480224609375,608
395,1455472069.60837101936340332031,608
396,1455472069.8552913665771484375,608
397,1455472069.86167836189270019531,608
398,1455472069.93688488006591796875,608
399,1455472070.01641941070556640625,608
400,1455472070.09818482398986816406,608
401,1455472070.17738318443298339844,608
402,1455472070.2575321197509765625,600
403,1455472070.33752560615539550781,600
404,1455472070.41662311553955078125,592
405,1455472070.4965648651123046875,592
406,1455472070.57755541801452636719,584
407,1455472070.65765786170959472656,576
408,1455472070.73713946342468261719,568
409,1455472070.81846475601196289062,560
410,1455472070.89855933189392089844,552
411,1455472070.97722220420837402344,544
412,1455472071.05861735343933105469,496
413,1455472071.13663887977600097656,512
414,1455472071.21731066703796386719,520
415,1455472071.29832172393798828125,528
416,1455472071.37747454643249511719,536
417,1455472071.45857167243957519531,544
418,1455472071.5394115447998046875,552
419,1455472071.61696624755859375,560
420,1455472071.6974277496337890625,568
421,1455472071.77764415740966796875,576
422,1455472071.85775542259216308594,584
423,1455472071.93733620643615722656,592
424,1455472072.02221512794494628906,592
425,1455472072.09711170196533203125,600
426,1455472072.17660379409790039062,600
427,1455472072.25865793228149414062,608
428,1455472072.33693981170654296875,608
429,1455472072.41729474067687988281,608
430,1455472072.49783849716186523438,608
431,1455472072.57718992233276367188,608
432,1455472072.65744471549987792969,608
433,1455472072.73746991157531738281,608
434,1455472072.81689548492431640625,608
435,1455472072.8971462249755859375,608
436,1455472072.97837114334106445312,600
437,1455472073.05794239044189453125,600
438,1455472073.13642787933349609375,592
439,1455472073.21861410140991210938,584
440,1455472073.297115325927734375,584
441,1455472073.37701702117919921875,576
442,1455472073.4589061737060546875,568
443,1455472073.53700375556945800781,560
444,1455472073.61716890335083007812,552
445,1455472073.69767880439758300781,544
446,1455472073.777088165283203125,536
447,1455472073.85765027999877929688,528
448,1455472073.937305450439453125,520
449,1455472074.01854062080383300781,504
450,1455472074.09714984893798828125,496
451,1455472074.17845845222473144531,488
452,1455472074.25848388671875,480
453,1455472074.33753323554992675781,472
454,1455472074.42006325721740722656,456
455,1455472074.49659967422485351562,448
456,1455472074.57742452621459960938,440
457,1455472074.65898275375366210938,432
458,1455472074.73702692985534667969,424
459,1455472074.81735777854919433594,416
460,1455472074.89802026748657226562,408
461,1455472074.97701430320739746094,400
462,1455472075.05737161636352539062,400
463,1455472075.14008831977844238281,392
464,1455472075.21638965606689453125,384
465,1455472075.29748773574829101562,384
466,1455472075.37842535972595214844,376
467,1455472075.45750761032104492188,376
468,1455472075.53694176673889160156,376
469,1455472075.61765170097351074219,376
470,1455472075.69673275947570800781,376
471,1455472075.77711415290832519531,376
472,1455472075.85848307609558105469,376
473,1455472075.9373626708984375,376
474,1455472076.01736283302307128906,376
475,1455472076.09754467010498046875,384
476,1455472076.17675423622131347656,384
477,1455472076.25754547119140625,392
478,1455472076.33776807785034179688,392
479,1455472076.41686749458312988281,400
480,1455472076.49670243263244628906,408
481,1455472076.57791662216186523438,416
482,1455472076.65787220001220703125,424
483,1455472076.73703455924987792969,432
484,1455472076.81758642196655273438,440
485,1455472076.89727091789245605469,448
486,1455472076.97655844688415527344,456
487,1455472077.05916452407836914062,464
488,1455472077.137165069580078125,472
489,1455472077.21715068817138671875,488
490,1455472077.29751467704772949219,496
491,1455472077.37735700607299804688,504
492,1455472077.45871329307556152344,512
493,1455472077.5379581451416015625,520
494,1455472077.61730551719665527344,528
495,1455472077.69715738296508789062,544
496,1455472077.77817273139953613281,552
497,1455472077.85781741142272949219,560
498,1455472077.936767578125,568
499,1455472078.01818680763244628906,576
500,1455472078.09665894508361816406,576
501,1455472078.17673563957214355469,584
502,1455472078.25876832008361816406,592
503,1455472078.33726215362548828125,600
504,1455472078.41662383079528808594,600
505,1455472078.49768114089965820312,608
