id, time (s), size (bits)
0,1455472029.63649630546569824219,1455472029.63750720024108886719,448
1,1455472029.78300809860229492188,1455472029.78348517417907714844,448
2,1455472029.87877869606018066406,1455472029.87925457954406738281,440
3,1455472029.94131588935852050781,1455472029.94177293777465820312,432
4,1455472029.98173046112060546875,1455472029.98219513893127441406,424
5,1455472030.01235675811767578125,1455472030.01291918754577636719,416
6,1455472030.03675031661987304688,1455472030.03725481033325195312,416
7,1455472030.09573841094970703125,1455472030.09621119499206542969,408
8,1455472030.15745806694030761719,1455472030.15807843208312988281,400
9,1455472030.21561217308044433594,1455472030.21612501144409179688,400
10,1455472030.27743816375732421875,1455472030.27803945541381835938,392
11,1455472030.3368129730224609375,1455472030.33736062049865722656,392
12,1455472030.39651584625244140625,1455472030.396976470947265625,384
13,1455472030.456562042236328125,1455472030.45700383186340332031,384
14,1455472030.5157184600830078125,1455472030.51615858078002929688,384
15,1455472030.5755863189697265625,1455472030.57609415054321289062,376
16,1455472030.63757824897766113281,1455472030.63810372352600097656,376
17,1455472030.69682049751281738281,1455472030.69743704795837402344,376
18,1455472030.75551462173461914062,1455472030.75650191307067871094,376
19,1455472030.815914154052734375,1455472030.81651020050048828125,376
20,1455472030.87741947174072265625,1455472030.87788057327270507812,376
21,1455472030.93638277053833007812,1455472030.93690538406372070312,376
22,1455472030.99569439888000488281,1455472030.99616217613220214844,376
23,1455472031.05670404434204101562,1455472031.05731439590454101562,376
24,1455472031.11789298057556152344,1455472031.1184558868408203125,376
25,1455472031.17600727081298828125,1455472031.17646455764770507812,376
26,1455472031.23691129684448242188,1455472031.23759031295776367188,376
27,1455472031.29511547088623046875,1455472031.29557919502258300781,384
28,1455472031.3567295074462890625,1455472031.35740542411804199219,384
29,1455472031.41586613655090332031,1455472031.41631436347961425781,384
30,1455472031.47607350349426269531,1455472031.47653794288635253906,392
31,1455472031.53747391700744628906,1455472031.53793573379516601562,392
32,1455472031.59696173667907714844,1455472031.5974330902099609375,400
33,1455472031.65627431869506835938,1455472031.65676832199096679688,408
34,1455472031.71504139900207519531,1455472031.71549344062805175781,408
35,1455472031.77549076080322265625,1455472031.77612209320068359375,416
36,1455472031.83759164810180664062,1455472031.83804655075073242188,424
37,1455472031.89610934257507324219,1455472031.8966999053955078125,424
38,1455472031.95646882057189941406,1455472031.95693349838256835938,432
39,1455472032.01608633995056152344,1455472032.01658463478088378906,440
40,1455472032.07780098915100097656,1455472032.07829117774963378906,448
41,1455472032.13717126846313476562,1455472032.13760519027709960938,456
42,1455472032.19562435150146484375,1455472032.19611787796020507812,456
43,1455472032.25592279434204101562,1455472032.25638699531555175781,464
44,1455472032.31685233116149902344,1455472032.31746220588684082031,472
45,1455472032.37725353240966796875,1455472032.37772035598754882812,480
46,1455472032.43647909164428710938,1455472032.43721914291381835938,488
47,1455472032.49579143524169921875,1455472032.49627733230590820312,496
48,1455472032.55684542655944824219,1455472032.5573139190673828125,504
49,1455472032.61642026901245117188,1455472032.61689257621765136719,512
50,1455472032.6755828857421875,1455472032.67604303359985351562,520
51,1455472032.73730731010437011719,1455472032.73795175552368164062,520
52,1455472032.79782867431640625,1455472032.79806470870971679688,528
53,1455472032.85588860511779785156,1455472032.85650491714477539062,536
54,1455472032.9160556793212890625,1455472032.91651177406311035156,544
55,1455472032.97588634490966796875,1455472032.976558685302734375,552
56,1455472033.03787755966186523438,1455472033.03848910331726074219,560
57,1455472033.09598660469055175781,1455472033.09643769264221191406,560
58,1455472033.1561279296875,1455472033.15659928321838378906,568
59,1455472033.21715641021728515625,1455472033.217632293701171875,576
60,1455472033.27699565887451171875,1455472033.2774944305419921875,576
61,1455472033.33633303642272949219,1455472033.33678412437438964844,584
62,1455472033.395854949951171875,1455472033.39646840095520019531,592
63,1455472033.45588207244873046875,1455472033.45643496513366699219,592
64,1455472033.51686406135559082031,1455472033.517520904541015625,600
65,1455472033.57616543769836425781,1455472033.57664847373962402344,600
66,1455472033.63716244697570800781,1455472033.6376132965087890625,600
67,1455472033.69579410552978515625,1455472033.69626688957214355469,608
68,1455472033.75703954696655273438,1455472033.75750660896301269531,608
69,1455472033.81552290916442871094,1455472033.81606650352478027344,608
70,1455472033.87604737281799316406,1455472033.87658643722534179688,608
71,1455472033.93654966354370117188,1455472033.93724656105041503906,608
72,1455472033.99647092819213867188,1455472033.99693799018859863281,608
73,1455472034.05681729316711425781,1455472034.05748629570007324219,608
74,1455472034.11574816703796386719,1455472034.11620306968688964844,608
75,1455472034.17611193656921386719,1455472034.176570892333984375,608
76,1455472034.23734045028686523438,1455472034.23788118362426757812,608
77,1455472034.29557442665100097656,1455472034.29610013961791992188,608
78,1455472034.355213165283203125,1455472034.35570836067199707031,608
79,1455472034.41615414619445800781,1455472034.41661238670349121094,600
80,1455472034.47786688804626464844,1455472034.47855401039123535156,600
81,1455472034.53596615791320800781,1455472034.5365200042724609375,600
82,1455472034.59596776962280273438,1455472034.59656620025634765625,592
83,1455472034.65602421760559082031,1455472034.656520843505859375,592
84,1455472034.71621870994567871094,1455472034.71666860580444335938,584
85,1455472034.77548432350158691406,1455472034.77596259117126464844,584
86,1455472034.83679628372192382812,1455472034.83733201026916503906,576
87,1455472034.89615797996520996094,1455472034.89665269851684570312,568
88,1455472034.95700907707214355469,1455472034.95747303962707519531,568
89,1455472035.01680088043212890625,1455472035.01753759384155273438,560
90,1455472035.076023101806640625,1455472035.07649779319763183594,552
91,1455472035.13612389564514160156,1455472035.13671183586120605469,544
92,1455472035.19662761688232421875,1455472035.19708776473999023438,496
93,1455472035.25562143325805664062,1455472035.25608277320861816406,504
94,1455472035.31696987152099609375,1455472035.31743001937866210938,504
95,1455472035.37604045867919921875,1455472035.37658834457397460938,512
96,1455472035.43782830238342285156,1455472035.43832659721374511719,520
97,1455472035.49615359306335449219,1455472035.49662184715270996094,528
98,1455472035.55522823333740234375,1455472035.55591225624084472656,536
99,1455472035.61519765853881835938,1455472035.61566901206970214844,544
100,1455472035.67626357078552246094,1455472035.67693042755126953125,552
101,1455472035.7376499176025390625,1455472035.73810338973999023438,552
102,1455472035.79581022262573242188,1455472035.79634070396423339844,560
103,1455472035.85601520538330078125,1455472035.8564891815185546875,568
104,1455472035.91659307479858398438,1455472035.91703939437866210938,576
105,1455472035.97604513168334960938,1455472035.97655153274536132812,576
106,1455472036.03684902191162109375,1455472036.03737187385559082031,584
107,1455472036.09615850448608398438,1455472036.09687042236328125,584
108,1455472036.15745282173156738281,1455472036.15792155265808105469,592
109,1455472036.21563482284545898438,1455472036.21628618240356445312,592
110,1455472036.27598786354064941406,1455472036.27645182609558105469,600
111,1455472036.3363628387451171875,1455472036.33680987358093261719,600
112,1455472036.39714336395263671875,1455472036.39767551422119140625,608
113,1455472036.45563983917236328125,1455472036.4560985565185546875,608
114,1455472036.51573348045349121094,1455472036.51622772216796875,608
115,1455472036.57699847221374511719,1455472036.57752943038940429688,608
116,1455472036.63724970817565917969,1455472036.63791203498840332031,608
117,1455472036.69569063186645507812,1455472036.69615054130554199219,608
118,1455472036.75594282150268554688,1455472036.75653386116027832031,608
119,1455472036.81543254852294921875,1455472036.8159923553466796875,608
120,1455472036.876483917236328125,1455472036.87694096565246582031,608
121,1455472036.93678593635559082031,1455472036.93725514411926269531,608
122,1455472036.99701952934265136719,1455472036.99756479263305664062,608
123,1455472037.05588555335998535156,1455472037.05640721321105957031,608
124,1455472037.116931915283203125,1455472037.11739420890808105469,608
125,1455472037.17669248580932617188,1455472037.17738485336303710938,600
126,1455472037.23619341850280761719,1455472037.23664903640747070312,600
127,1455472037.29573583602905273438,1455472037.29641270637512207031,592
128,1455472037.3571319580078125,1455472037.35759210586547851562,592
129,1455472037.41657972335815429688,1455472037.41703820228576660156,584
130,1455472037.47630262374877929688,1455472037.47677493095397949219,584
131,1455472037.53716707229614257812,1455472037.53765869140625,576
132,1455472037.93090653419494628906,1455472037.93519687652587890625,568
133,1455472037.95102858543395996094,1455472037.95154595375061035156,568
134,1455472038.00266861915588378906,1455472038.00323152542114257812,560
135,1455472038.02503871917724609375,1455472038.02597188949584960938,552
136,1455472038.06295275688171386719,1455472038.06341862678527832031,536
137,1455472038.12365603446960449219,1455472038.12419843673706054688,528
138,1455472038.18158793449401855469,1455472038.18206501007080078125,520
139,1455472038.22099566459655761719,1455472038.22146368026733398438,512
140,1455472038.24240517616271972656,1455472038.24303388595581054688,512
141,1455472038.30156683921813964844,1455472038.30209946632385253906,504
142,1455472038.36337232589721679688,1455472038.36404967308044433594,552
143,1455472038.42203521728515625,1455472038.42252755165100097656,544
144,1455472038.43580222129821777344,1455472038.43627429008483886719,536
145,1455472038.4831905364990234375,1455472038.48470211029052734375,496
146,1455472038.48534655570983886719,1455472038.48640847206115722656,488
147,1455472038.53282833099365234375,1455472038.53330373764038085938,480
148,1455472038.5424633026123046875,1455472038.54294610023498535156,528
149,1455472038.56856679916381835938,1455472038.57024335861206054688,520
150,1455472038.58869481086730957031,1455472038.59085321426391601562,512
151,1455472038.601627349853515625,1455472038.60324048995971679688,504
152,1455472038.60382390022277832031,1455472038.60422253608703613281,472
153,1455472038.63149356842041015625,1455472038.63215303421020507812,464
154,1455472038.63372278213500976562,1455472038.63423943519592285156,456
155,1455472038.66219186782836914062,1455472038.662689208984375,448
156,1455472038.68615770339965820312,1455472038.68775534629821777344,432
157,1455472038.68835926055908203125,1455472038.68890166282653808594,504
158,1455472038.70503377914428710938,1455472038.70558667182922363281,496
159,1455472038.7249240875244140625,1455472038.72609186172485351562,488
160,1455472038.73459219932556152344,1455472038.73526453971862792969,448
161,1455472038.74993824958801269531,1455472038.75040841102600097656,424
162,1455472038.77793979644775390625,1455472038.77970623970031738281,424
163,1455472038.78262567520141601562,1455472038.78307843208312988281,440
164,1455472038.7850189208984375,1455472038.78550243377685546875,432
165,1455472038.81034994125366210938,1455472038.81080293655395507812,416
166,1455472038.83334946632385253906,1455472038.83397698402404785156,480
167,1455472038.8442401885986328125,1455472038.84472417831420898438,472
168,1455472038.85818958282470703125,1455472038.8589076995849609375,464
169,1455472038.86748337745666503906,1455472038.86793780326843261719,432
170,1455472038.88465476036071777344,1455472038.8851642608642578125,432
171,1455472038.90312957763671875,1455472038.9036693572998046875,416
172,1455472038.93073582649230957031,1455472038.9314975738525390625,424
173,1455472038.93413972854614257812,1455472038.9345836639404296875,408
174,1455472038.96244931221008300781,1455472038.96304774284362792969,424
175,1455472038.98437619209289550781,1455472038.98485112190246582031,456
176,1455472038.98905396461486816406,1455472038.98957467079162597656,448
177,1455472038.99390554428100585938,1455472038.99435305595397949219,448
178,1455472039.01572942733764648438,1455472039.016231536865234375,416
179,1455472039.02197408676147460938,1455472039.02247166633605957031,408
180,1455472039.03439927101135253906,1455472039.03487372398376464844,416
181,1455472039.036808013916015625,1455472039.03750514984130859375,432
182,1455472039.05131959915161132812,1455472039.0520725250244140625,432
183,1455472039.08336234092712402344,1455472039.0839748382568359375,416
184,1455472039.08599591255187988281,1455472039.08644175529479980469,400
185,1455472039.09699296951293945312,1455472039.0974330902099609375,408
186,1455472039.10823583602905273438,1455472039.10881400108337402344,400
187,1455472039.13280224800109863281,1455472039.13324403762817382812,408
188,1455472039.14300942420959472656,1455472039.14349722862243652344,424
189,1455472039.15517401695251464844,1455472039.15569210052490234375,408
190,1455472039.16685533523559570312,1455472039.16753339767456054688,392
191,1455472039.18542647361755371094,1455472039.18658685684204101562,400
192,1455472039.20199799537658691406,1455472039.20267462730407714844,400
193,1455472039.21485638618469238281,1455472039.21532535552978515625,416
194,1455472039.22970747947692871094,1455472039.23016619682312011719,416
195,1455472039.23408365249633789062,1455472039.23454880714416503906,392
196,1455472039.26167058944702148438,1455472039.26213884353637695312,400
197,1455472039.27703428268432617188,1455472039.27798199653625488281,384
198,1455472039.28385019302368164062,1455472039.28438448905944824219,400
199,1455472039.28901696205139160156,1455472039.29102945327758789062,408
200,1455472039.32389569282531738281,1455472039.32436728477478027344,400
201,1455472039.3328704833984375,1455472039.33354830741882324219,392
202,1455472039.33611917495727539062,1455472039.33655834197998046875,384
203,1455472039.34822034835815429688,1455472039.34871649742126464844,400
204,1455472039.38221645355224609375,1455472039.38279414176940917969,392
205,1455472039.38432765007019042969,1455472039.38475489616394042969,392
206,1455472039.39611315727233886719,1455472039.3970184326171875,384
207,1455472039.408233642578125,1455472039.40873813629150390625,392
208,1455472039.44063973426818847656,1455472039.44137597084045410156,392
209,1455472039.44293808937072753906,1455472039.4433841705322265625,376
210,1455472039.45530486106872558594,1455472039.45587635040283203125,384
211,1455472039.47044205665588378906,1455472039.47090601921081542969,392
212,1455472039.48758435249328613281,1455472039.48919463157653808594,384
213,1455472039.50275111198425292969,1455472039.50328826904296875,376
214,1455472039.51836276054382324219,1455472039.51886415481567382812,384
215,1455472039.53015947341918945312,1455472039.53238511085510253906,384
216,1455472039.54987311363220214844,1455472039.55177736282348632812,384
217,1455472039.56466507911682128906,1455472039.56528902053833007812,376
218,1455472039.57636594772338867188,1455472039.57817864418029785156,384
219,1455472039.58884143829345703125,1455472039.58969402313232421875,384
220,1455472039.61195540428161621094,1455472039.61247038841247558594,376
221,1455472039.62286496162414550781,1455472039.62331342697143554688,376
222,1455472039.63656878471374511719,1455472039.6370449066162109375,376
223,1455472039.6474151611328125,1455472039.64806318283081054688,376
224,1455472039.65839242935180664062,1455472039.65894055366516113281,384
225,1455472039.68201971054077148438,1455472039.68248224258422851562,376
226,1455472039.69519901275634765625,1455472039.69580626487731933594,376
227,1455472039.7095165252685546875,1455472039.70995593070983886719,376
228,1455472039.72643494606018066406,1455472039.72890543937683105469,376
229,1455472039.74306964874267578125,1455472039.74359536170959472656,376
230,1455472039.7574100494384765625,1455472039.75795006752014160156,376
231,1455472039.77139568328857421875,1455472039.77185940742492675781,376
232,1455472039.78282952308654785156,1455472039.78329396247863769531,376
233,1455472039.7998142242431640625,1455472039.80037522315979003906,376
234,1455472039.80596923828125,1455472039.80642724037170410156,376
235,1455472039.81568837165832519531,1455472039.81668543815612792969,376
236,1455472039.828678131103515625,1455472039.83045911788940429688,376
237,1455472039.83342409133911132812,1455472039.83409571647644042969,376
238,1455472039.8620758056640625,1455472039.86261391639709472656,376
239,1455472039.87650156021118164062,1455472039.8781795501708984375,376
240,1455472039.88651442527770996094,1455472039.88851618766784667969,376
241,1455472039.89042305946350097656,1455472039.89232230186462402344,376
242,1455472039.9224948883056640625,1455472039.92306113243103027344,376
243,1455472039.93481206893920898438,1455472039.93528509140014648438,376
244,1455472039.93730068206787109375,1455472039.93789052963256835938,376
245,1455472039.94888019561767578125,1455472039.94940447807312011719,376
246,1455472039.98268151283264160156,1455472039.98335099220275878906,376
247,1455472039.98544859886169433594,1455472039.98598051071166992188,376
248,1455472039.99652767181396484375,1455472039.99696779251098632812,376
249,1455472040.01111245155334472656,1455472040.01157903671264648438,376
250,1455472040.03373599052429199219,1455472040.03421449661254882812,376
251,1455472040.04418540000915527344,1455472040.04469442367553710938,376
252,1455472040.05549097061157226562,1455472040.05607581138610839844,376
253,1455472040.06868410110473632812,1455472040.06935286521911621094,376
254,1455472040.08467864990234375,1455472040.0852260589599609375,376
255,1455472040.10162997245788574219,1455472040.10231781005859375,376
256,1455472040.11511182785034179688,1455472040.11555695533752441406,376
257,1455472040.12919068336486816406,1455472040.13203477859497070312,376
258,1455472040.13264179229736328125,1455472040.13305711746215820312,376
259,1455472040.1630840301513671875,1455472040.1636409759521484375,376
260,1455472040.17577147483825683594,1455472040.17628192901611328125,376
261,1455472040.18388247489929199219,1455472040.184345245361328125,376
262,1455472040.18954372406005859375,1455472040.19022417068481445312,384
263,1455472040.2225170135498046875,1455472040.22299337387084960938,376
264,1455472040.23399829864501953125,1455472040.23460745811462402344,376
265,1455472040.23729085922241210938,1455472040.23957777023315429688,384
266,1455472040.24949026107788085938,1455472040.25136256217956542969,376
267,1455472040.28464579582214355469,1455472040.28512716293334960938,376
268,1455472040.29564142227172851562,1455472040.29614806175231933594,376
269,1455472040.31108975410461425781,1455472040.31155109405517578125,384
270,1455472040.33327007293701171875,1455472040.33374118804931640625,376
271,1455472040.34315943717956542969,1455472040.34365391731262207031,376
272,1455472040.3564090728759765625,1455472040.35693502426147460938,392
273,1455472040.36710572242736816406,1455472040.36770749092102050781,384
274,1455472040.38412594795227050781,1455472040.38459634780883789062,376
275,1455472040.40246677398681640625,1455472040.40308284759521484375,384
276,1455472040.41566967964172363281,1455472040.41620373725891113281,392
277,1455472040.43041372299194335938,1455472040.43106889724731445312,384
278,1455472040.43337583541870117188,1455472040.43383240699768066406,384
279,1455472040.46197557449340820312,1455472040.46252512931823730469,384
280,1455472040.47708749771118164062,1455472040.47875928878784179688,400
