id, time (s), size (bits)
0,1456028854.92144536972045898438,1456028854.92179560661315917969,4768
1,1456028855.02081823348999023438,1456028855.02102255821228027344,4856
2,1456028855.12014651298522949219,1456028855.12036085128784179688,4944
3,1456028855.22035813331604003906,1456028855.22057056427001953125,5048
4,1456028855.31714224815368652344,1456028855.31739449501037597656,5152
5,1456028855.42057824134826660156,1456028855.42090892791748046875,5264
6,1456028855.52056431770324707031,1456028855.52088689804077148438,5376
7,1456028855.61998653411865234375,1456028855.62019968032836914062,5488
8,1456028855.71675562858581542969,1456028855.71697282791137695312,5608
9,1456028855.81703710556030273438,1456028855.81727170944213867188,5736
10,1456028855.92034554481506347656,1456028855.92056989669799804688,5856
11,1456028856.02056813240051269531,1456028856.02087068557739257812,5984
12,1456028856.11745929718017578125,1456028856.11766695976257324219,6112
13,1456028856.21989035606384277344,1456028856.22010374069213867188,6232
14,1456028856.31699275970458984375,1456028856.31719493865966796875,6360
15,1456028856.41741919517517089844,1456028856.41763615608215332031,6480
16,1456028856.52054262161254882812,1456028856.52084040641784667969,6608
17,1456028856.62064337730407714844,1456028856.62094545364379882812,6720
18,1456028856.71996164321899414062,1456028856.7201747894287109375,6840
19,1456028856.81677126884460449219,1456028856.81699609756469726562,6952
20,1456028856.91716551780700683594,1456028856.91737508773803710938,7056
21,1456028857.02003216743469238281,1456028857.02024626731872558594,7160
22,1456028857.11689472198486328125,1456028857.11714935302734375,7264
23,1456028857.22017884254455566406,1456028857.22038960456848144531,7352
24,1456028857.32025790214538574219,1456028857.32047128677368164062,7440
25,1456028857.41727566719055175781,1456028857.41748309135437011719,7520
26,1456028857.60225152969360351562,1456028857.60246872901916503906,7592
27,1456028857.70267915725708007812,1456028857.70289492607116699219,7656
28,1456028857.80301308631896972656,1456028857.80323052406311035156,7720
29,1456028857.92024779319763183594,1456028857.92047357559204101562,7768
30,1456028858.10742449760437011719,1456028858.10763907432556152344,7808
31,1456028858.15731954574584960938,1456028858.15752863883972167969,7840
32,1456028858.30263972282409667969,1456028858.30285692214965820312,7872
33,1456028858.42023181915283203125,1456028858.42044830322265625,7888
34,1456028858.60358929634094238281,1456028858.60381340980529785156,7888
35,1456028858.71016263961791992188,1456028858.71037602424621582031,7880
36,1456028858.79784345626831054688,1456028858.79806089401245117188,7864
37,1456028859.00228023529052734375,1456028859.00249624252319335938,7832
38,1456028859.10276246070861816406,1456028859.10297441482543945312,7752
39,1456028859.20216894149780273438,1456028859.20240187644958496094,7704
40,1456028859.30897307395935058594,1456028859.30918741226196289062,7640
41,1456028859.50211215019226074219,1456028859.5023326873779296875,7576
42,1456028859.60288715362548828125,1456028859.60310578346252441406,7496
43,1456028859.70306491851806640625,1456028859.70327639579772949219,7328
44,1456028859.80244684219360351562,1456028859.80266356468200683594,7240
45,1456028859.9171695709228515625,1456028859.91738605499267578125,7136
46,1456028860.11267828941345214844,1456028860.1128978729248046875,7032
47,1456028860.14849495887756347656,1456028860.148708343505859375,6920
48,1456028860.30214452743530273438,1456028860.30236077308654785156,6808
49,1456028860.40346002578735351562,1456028860.40369272232055664062,6680
50,1456028860.50232911109924316406,1456028860.50271058082580566406,6448
51,1456028860.60296487808227539062,1456028860.60337138175964355469,6328
52,1456028860.70278644561767578125,1456028860.70307445526123046875,6200
53,1456028860.81704187393188476562,1456028860.8172607421875,6080
54,1456028860.91992545127868652344,1456028860.92013382911682128906,5952
55,1456028861.01673245429992675781,1456028861.01698422431945800781,5824
56,1456028861.12004566192626953125,1456028861.12025976181030273438,5704
57,1456028861.22017979621887207031,1456028861.22039747238159179688,5584
58,1456028861.30216288566589355469,1456028861.302371978759765625,5464
59,1456028861.4028148651123046875,1456028861.40304136276245117188,5344
60,1456028861.5024261474609375,1456028861.50264096260070800781,5232
61,1456028861.60279917716979980469,1456028861.60301613807678222656,5128
62,1456028861.70262861251831054688,1456028861.70284414291381835938,5112
63,1456028861.80264759063720703125,1456028861.80288004875183105469,5024
64,1456028861.90288114547729492188,1456028861.90309309959411621094,4920
65,1456028861.92964506149291992188,1456028861.92986083030700683594,4832
66,1456028862.02113628387451171875,1456028862.02135562896728515625,4744
67,1456028862.10282683372497558594,1456028862.10303854942321777344,4664
68,1456028862.20202684402465820312,1456028862.20224475860595703125,4656
69,1456028862.30255985260009765625,1456028862.30278277397155761719,4592
70,1456028862.40301227569580078125,1456028862.40323472023010253906,4528
71,1456028862.50240612030029296875,1456028862.50262498855590820312,4464
72,1456028862.51410198211669921875,1456028862.51548123359680175781,4464
73,1456028862.60266828536987304688,1456028862.60288310050964355469,4416
74,1456028862.70197796821594238281,1456028862.70218873023986816406,4376
75,1456028862.80228686332702636719,1456028862.80249929428100585938,4344
76,1456028862.81681036949157714844,1456028862.81701493263244628906,4336
77,1456028862.90347337722778320312,1456028862.9036865234375,4320
78,1456028863.00275707244873046875,1456028863.00296950340270996094,4304
79,1456028863.10297393798828125,1456028863.1032009124755859375,4296
80,1456028863.11993241310119628906,1456028863.12013649940490722656,4296
81,1456028863.20261836051940917969,1456028863.2028331756591796875,4304
82,1456028863.30267333984375,1456028863.30289101600646972656,4320
83,1456028863.40215349197387695312,1456028863.40236902236938476562,4352
84,1456028863.50236797332763671875,1456028863.502582550048828125,4384
85,1456028863.51695752143859863281,1456028863.51734781265258789062,4432
86,1456028863.60325193405151367188,1456028863.60346913337707519531,4480
87,1456028863.7022609710693359375,1456028863.70247721672058105469,4544
88,1456028863.80245089530944824219,1456028863.80267047882080078125,4608
89,1456028863.9030857086181640625,1456028863.90331816673278808594,4680
90,1456028863.92021632194519042969,1456028863.92042994499206542969,4768
91,1456028864.01672339439392089844,1456028864.01693749427795410156,4856
92,1456028864.12013530731201171875,1456028864.12034893035888671875,4944
93,1456028864.21997952461242675781,1456028864.22035765647888183594,5048
94,1456028864.3169040679931640625,1456028864.31711673736572265625,5152
95,1456028864.420196533203125,1456028864.42041492462158203125,5264
96,1456028864.52009057998657226562,1456028864.52030181884765625,5376
97,1456028864.61700868606567382812,1456028864.61726522445678710938,5488
98,1456028864.72010207176208496094,1456028864.72031903266906738281,5608
99,1456028864.8173828125,1456028864.81760764122009277344,5736
100,1456028864.92000055313110351562,1456028864.92021250724792480469,5856
101,1456028865.0167102813720703125,1456028865.01691770553588867188,5984
102,1456028865.11727285385131835938,1456028865.11748480796813964844,6112
103,1456028865.22021794319152832031,1456028865.22043251991271972656,6232
104,1456028865.31696271896362304688,1456028865.31721615791320800781,6360
105,1456028865.42006850242614746094,1456028865.42028784751892089844,6480
106,1456028865.51995038986206054688,1456028865.52015757560729980469,6600
107,1456028865.61707592010498046875,1456028865.61728572845458984375,6720
108,1456028865.71718144416809082031,1456028865.7173938751220703125,6840
109,1456028865.82090616226196289062,1456028865.8211231231689453125,6952
110,1456028865.92069697380065917969,1456028865.9210205078125,7056
111,1456028866.02020859718322753906,1456028866.02041912078857421875,7160
112,1456028866.11700320243835449219,1456028866.11721491813659667969,7264
113,1456028866.21720790863037109375,1456028866.21742296218872070312,7352
114,1456028866.32040762901306152344,1456028866.320629119873046875,7440
115,1456028866.41704869270324707031,1456028866.41726565361022949219,7520
116,1456028866.52013134956359863281,1456028866.52034044265747070312,7592
117,1456028866.70300340652465820312,1456028866.70321917533874511719,7656
118,1456028866.8208332061767578125,1456028866.82104229927062988281,7720
119,1456028866.902439117431640625,1456028866.90266203880310058594,7768
120,1456028867.01799511909484863281,1456028867.01820635795593261719,7808
121,1456028867.12458848953247070312,1456028867.12480664253234863281,7840
122,1456028867.32065677642822265625,1456028867.3210010528564453125,7872
123,1456028867.40189790725708007812,1456028867.40210819244384765625,7888
124,1456028867.51721692085266113281,1456028867.51743078231811523438,7888
125,1456028867.62179875373840332031,1456028867.62201261520385742188,7880
126,1456028867.74964427947998046875,1456028867.74985814094543457031,7864
127,1456028867.90272879600524902344,1456028867.90296125411987304688,7832
128,1456028868.01758527755737304688,1456028868.01779961585998535156,7752
129,1456028868.20290112495422363281,1456028868.203136444091796875,7704
130,1456028868.30834436416625976562,1456028868.3085613250732421875,7640
131,1456028868.38159275054931640625,1456028868.38179922103881835938,7576
132,1456028868.51697039604187011719,1456028868.51718425750732421875,7496
133,1456028868.70321297645568847656,1456028868.70343351364135742188,7328
134,1456028868.80285048484802246094,1456028868.80306911468505859375,7240
135,1456028868.90322828292846679688,1456028868.90344595909118652344,7136
136,1456028869.00262904167175292969,1456028869.002841949462890625,7032
137,1456028869.11141896247863769531,1456028869.11204814910888671875,6920
138,1456028869.21516013145446777344,1456028869.215373992919921875,6808
139,1456028869.40327668190002441406,1456028869.40349984169006347656,6680
140,1456028869.50284981727600097656,1456028869.50306987762451171875,6448
141,1456028869.60302662849426269531,1456028869.60323739051818847656,6328
142,1456028869.70334839820861816406,1456028869.70356345176696777344,6200
143,1456028869.8027744293212890625,1456028869.8029956817626953125,6072
144,1456028869.9029407501220703125,1456028869.90315937995910644531,5952
145,1456028870.00254893302917480469,1456028870.0027637481689453125,5824
146,1456028870.10293936729431152344,1456028870.10315561294555664062,5704
147,1456028870.2031764984130859375,1456028870.20339059829711914062,5584
148,1456028870.30256700515747070312,1456028870.30278277397155761719,5464
149,1456028870.40299749374389648438,1456028870.40322947502136230469,5344
150,1456028870.50327515602111816406,1456028870.50348997116088867188,5232
151,1456028870.60297060012817382812,1456028870.60319304466247558594,5128
152,1456028870.62029290199279785156,1456028870.62049984931945800781,5112
153,1456028870.71995568275451660156,1456028870.72016882896423339844,5024
154,1456028870.80233240127563476562,1456028870.80254268646240234375,4920
155,1456028870.90291380882263183594,1456028870.903125762939453125,4832
156,1456028871.00333929061889648438,1456028871.00355267524719238281,4744
157,1456028871.10287570953369140625,1456028871.10309100151062011719,4664
158,1456028871.20287466049194335938,1456028871.20308804512023925781,4656
159,1456028871.21437287330627441406,1456028871.21568369865417480469,4592
160,1456028871.30225992202758789062,1456028871.30247473716735839844,4528
161,1456028871.40286231040954589844,1456028871.40307593345642089844,4464
162,1456028871.50294780731201171875,1456028871.50316786766052246094,4464
163,1456028871.53277683258056640625,1456028871.53298473358154296875,4416
164,1456028871.62043333053588867188,1456028871.62064123153686523438,4376
165,1456028871.70262408256530761719,1456028871.70283818244934082031,4344
166,1456028871.80308794975280761719,1456028871.80330014228820800781,4336
167,1456028871.92021465301513671875,1456028871.92042660713195800781,4320
168,1456028871.9318485260009765625,1456028871.93313527107238769531,4304
169,1456028872.00256204605102539062,1456028872.00279998779296875,4296
170,1456028872.11999940872192382812,1456028872.12021327018737792969,4296
171,1456028872.20220494270324707031,1456028872.20241808891296386719,4304
172,1456028872.21654820442199707031,1456028872.21675848960876464844,4320
173,1456028872.32095646858215332031,1456028872.32116675376892089844,4352
174,1456028872.40284705162048339844,1456028872.4030609130859375,4384
175,1456028872.51742815971374511719,1456028872.51763653755187988281,4432
176,1456028872.52887773513793945312,1456028872.53014802932739257812,4480
177,1456028872.62005925178527832031,1456028872.62027597427368164062,4544
178,1456028872.72082161903381347656,1456028872.72103524208068847656,4608
179,1456028872.81728672981262207031,1456028872.81751275062561035156,4680
180,1456028872.92036581039428710938,1456028872.92058062553405761719,4768
181,1456028873.02042245864868164062,1456028873.02068161964416503906,4856
182,1456028873.1200809478759765625,1456028873.120296478271484375,4944
183,1456028873.22000265121459960938,1456028873.22021794319152832031,5048
184,1456028873.31676626205444335938,1456028873.31698632240295410156,5152
185,1456028873.41975164413452148438,1456028873.41996860504150390625,5264
186,1456028873.51663184165954589844,1456028873.51683712005615234375,5376
187,1456028873.61702418327331542969,1456028873.61723947525024414062,5488
188,1456028873.71992135047912597656,1456028873.72013115882873535156,5608
189,1456028873.81658911705017089844,1456028873.81681752204895019531,5736
190,1456028873.91705656051635742188,1456028873.91726660728454589844,5856
191,1456028874.02004241943359375,1456028874.02026462554931640625,5984
192,1456028874.12057971954345703125,1456028874.120899200439453125,6104
193,1456028874.217197418212890625,1456028874.21741151809692382812,6232
194,1456028874.32055377960205078125,1456028874.32086110115051269531,6360
195,1456028874.42054629325866699219,1456028874.42084813117980957031,6480
196,1456028874.5202655792236328125,1456028874.52047705650329589844,6600
197,1456028874.617183685302734375,1456028874.61738562583923339844,6720
198,1456028874.71712565422058105469,1456028874.71733736991882324219,6840
199,1456028874.8204059600830078125,1456028874.82063174247741699219,6952
200,1456028874.917392730712890625,1456028874.91760373115539550781,7056
201,1456028875.02035760879516601562,1456028875.02061104774475097656,7160
202,1456028875.12066626548767089844,1456028875.12096929550170898438,7264
203,1456028875.21984553337097167969,1456028875.22006130218505859375,7352
204,1456028875.31674838066101074219,1456028875.31712698936462402344,7440
205,1456028875.41720080375671386719,1456028875.41757965087890625,7520
206,1456028875.52014636993408203125,1456028875.52036643028259277344,7592
207,1456028875.61711788177490234375,1456028875.61732554435729980469,7656
208,1456028875.71719694137573242188,1456028875.7174091339111328125,7720
209,1456028875.91727805137634277344,1456028875.91751337051391601562,7768
210,1456028876.00341176986694335938,1456028876.003627777099609375,7808
211,1456028876.12230825424194335938,1456028876.12252378463745117188,7840
212,1456028876.27788782119750976562,1456028876.27809596061706542969,7872
213,1456028876.40280199050903320312,1456028876.40302491188049316406,7888
214,1456028876.52031016349792480469,1456028876.52052807807922363281,7888
215,1456028876.60224556922912597656,1456028876.60246586799621582031,7880
216,1456028876.72436094284057617188,1456028876.72457718849182128906,7864
217,1456028876.90294933319091796875,1456028876.90316152572631835938,7832
218,1456028877.00317335128784179688,1456028877.00338482856750488281,7752
219,1456028877.10340929031372070312,1456028877.103633880615234375,7704
220,1456028877.22096014022827148438,1456028877.22133660316467285156,7640
221,1456028877.34564280509948730469,1456028877.345859527587890625,7576
222,1456028877.50320935249328613281,1456028877.50342583656311035156,7496
223,1456028877.6032314300537109375,1456028877.60344433784484863281,7328
224,1456028877.7169132232666015625,1456028877.71712970733642578125,7240
225,1456028877.90360236167907714844,1456028877.90381574630737304688,7136
226,1456028878.00301265716552734375,1456028878.00322723388671875,7032
227,1456028878.11255502700805664062,1456028878.11277079582214355469,6920
228,1456028878.17912244796752929688,1456028878.17933416366577148438,6808
229,1456028878.30284833908081054688,1456028878.30307221412658691406,6680
230,1456028878.40347695350646972656,1456028878.40369486808776855469,6448
231,1456028878.51722383499145507812,1456028878.51744222640991210938,6328
232,1456028878.62031626701354980469,1456028878.62052798271179199219,6200
233,1456028878.80276894569396972656,1456028878.80298638343811035156,6072
234,1456028878.90331959724426269531,1456028878.90353274345397949219,5952
235,1456028879.00248622894287109375,1456028879.0027027130126953125,5824
236,1456028879.10284638404846191406,1456028879.10306549072265625,5704
237,1456028879.12088274955749511719,1456028879.12108373641967773438,5584
238,1456028879.22027063369750976562,1456028879.22048687934875488281,5464
239,1456028879.31714129447937011719,1456028879.31736254692077636719,5344
240,1456028879.4033870697021484375,1456028879.40360164642333984375,5232
241,1456028879.50270175933837890625,1456028879.50291371345520019531,5128
242,1456028879.60417938232421875,1456028879.60440802574157714844,5112
243,1456028879.70279741287231445312,1456028879.70301938056945800781,5024
244,1456028879.8031005859375,1456028879.80331683158874511719,4920
245,1456028879.90247106552124023438,1456028879.9026851654052734375,4832
246,1456028879.92897367477416992188,1456028879.92919087409973144531,4744
247,1456028880.02070212364196777344,1456028880.02102494239807128906,4664
248,1456028880.10306525230407714844,1456028880.10328173637390136719,4656
249,1456028880.20261287689208984375,1456028880.20284700393676757812,4592
250,1456028880.30341839790344238281,1456028880.30363726615905761719,4528
251,1456028880.40353488922119140625,1456028880.40375280380249023438,4464
252,1456028880.42195367813110351562,1456028880.42216563224792480469,4464
253,1456028880.50270533561706542969,1456028880.502918243408203125,4416
254,1456028880.6033000946044921875,1456028880.60351967811584472656,4376
255,1456028880.70278191566467285156,1456028880.70301961898803710938,4344
256,1456028880.80273222923278808594,1456028880.8029499053955078125,4336
257,1456028880.82088017463684082031,1456028880.8210887908935546875,4320
258,1456028880.91985583305358886719,1456028880.92007803916931152344,4304
259,1456028881.00224971771240234375,1456028881.00247883796691894531,4296
260,1456028881.02809309959411621094,1456028881.02846693992614746094,4296
261,1456028881.12062978744506835938,1456028881.12096953392028808594,4304
262,1456028881.20277619361877441406,1456028881.20299315452575683594,4320
263,1456028881.31693983078002929688,1456028881.31716084480285644531,4352
264,1456028881.402866363525390625,1456028881.40308666229248046875,4384
265,1456028881.42049193382263183594,1456028881.42069554328918457031,4432
266,1456028881.52002644538879394531,1456028881.52023959159851074219,4480
267,1456028881.61676001548767089844,1456028881.61701464653015136719,4544
268,1456028881.71719646453857421875,1456028881.71741437911987304688,4608
269,1456028881.8203182220458984375,1456028881.82054615020751953125,4680
270,1456028881.92066049575805664062,1456028881.92098855972290039062,4768
271,1456028882.01992297172546386719,1456028882.02013731002807617188,4856
272,1456028882.11673688888549804688,1456028882.11699175834655761719,4944
273,1456028882.22091937065124511719,1456028882.22112870216369628906,5048
274,1456028882.32010722160339355469,1456028882.32032752037048339844,5152
275,1456028882.41705965995788574219,1456028882.41727542877197265625,5264
276,1456028882.51982140541076660156,1456028882.52003574371337890625,5376
