id, time (s), size (bits)
0,1456028855.12563610076904296875,1456028855.12599802017211914062,4960
1,1456028855.22004175186157226562,1456028855.22025942802429199219,5056
2,1456028855.3193264007568359375,1456028855.31953763961791992188,5160
3,1456028855.42007994651794433594,1456028855.42029571533203125,5272
4,1456028855.51626062393188476562,1456028855.51647496223449707031,5376
5,1456028855.619960784912109375,1456028855.62017178535461425781,5504
6,1456028855.71991610527038574219,1456028855.72012591361999511719,5624
7,1456028855.81979632377624511719,1456028855.82000517845153808594,5744
8,1456028855.91593241691589355469,1456028855.91613674163818359375,5864
9,1456028856.01623582839965820312,1456028856.01645827293395996094,5984
10,1456028856.11995005607604980469,1456028856.12015891075134277344,6120
11,1456028856.22020053863525390625,1456028856.22041082382202148438,6248
12,1456028856.31661581993103027344,1456028856.31682825088500976562,6368
13,1456028856.41974520683288574219,1456028856.419948577880859375,6488
14,1456028856.51608681678771972656,1456028856.51629662513732910156,6608
15,1456028856.61684536933898925781,1456028856.61705183982849121094,6728
16,1456028856.72032117843627929688,1456028856.72053265571594238281,6848
17,1456028856.82323193550109863281,1456028856.82344508171081542969,6960
18,1456028856.91953492164611816406,1456028856.91974544525146484375,7064
19,1456028857.01597762107849121094,1456028857.01620030403137207031,7168
20,1456028857.11679387092590332031,1456028857.117008209228515625,7264
21,1456028857.21975660324096679688,1456028857.21996903419494628906,7360
22,1456028857.31602048873901367188,1456028857.31623506546020507812,7440
23,1456028857.41953349113464355469,1456028857.41974902153015136719,7528
24,1456028857.52909541130065917969,1456028857.52930903434753417969,7600
25,1456028857.65307641029357910156,1456028857.65328669548034667969,7672
26,1456028857.80136203765869140625,1456028857.80157470703125,7760
27,1456028857.90470004081726074219,1456028857.90491700172424316406,7808
28,1456028858.03159785270690917969,1456028858.0318126678466796875,7840
29,1456028858.15925335884094238281,1456028858.15947937965393066406,7872
30,1456028858.30650997161865234375,1456028858.306728363037109375,7888
31,1456028858.41540479660034179688,1456028858.41561841964721679688,7888
32,1456028858.54359459877014160156,1456028858.54380393028259277344,7880
33,1456028858.67171311378479003906,1456028858.67192792892456054688,7856
34,1456028858.80321931838989257812,1456028858.80343866348266601562,7800
35,1456028858.92647719383239746094,1456028858.92668843269348144531,7752
36,1456028859.05272126197814941406,1456028859.0529270172119140625,7696
37,1456028859.20128273963928222656,1456028859.20149898529052734375,7584
38,1456028859.30209517478942871094,1456028859.30230736732482910156,7512
39,1456028859.42498016357421875,1456028859.4252071380615234375,7424
40,1456028859.54659056663513183594,1456028859.54689335823059082031,7320
41,1456028859.70141839981079101562,1456028859.70163083076477050781,7144
42,1456028859.80196356773376464844,1456028859.80217599868774414062,7040
43,1456028859.90550899505615234375,1456028859.90572571754455566406,6928
44,1456028860.01504421234130859375,1456028860.01525926589965820312,6824
45,1456028860.128314971923828125,1456028860.12853455543518066406,6688
46,1456028860.312519073486328125,1456028860.3127346038818359375,6448
47,1456028860.34749865531921386719,1456028860.34770870208740234375,6408
48,1456028860.50116634368896484375,1456028860.50155735015869140625,6216
49,1456028860.60532379150390625,1456028860.60555696487426757812,6088
50,1456028860.70143723487854003906,1456028860.70165038108825683594,5960
51,1456028860.80217576026916503906,1456028860.80242156982421875,5840
52,1456028860.902919769287109375,1456028860.90329837799072265625,5712
53,1456028861.01635384559631347656,1456028861.01657390594482421875,5576
54,1456028861.11981868743896484375,1456028861.12003254890441894531,5456
55,1456028861.21587777137756347656,1456028861.21609330177307128906,5344
56,1456028861.31923651695251464844,1456028861.31944990158081054688,5224
57,1456028861.41963863372802734375,1456028861.419849395751953125,5120
58,1456028861.50106215476989746094,1456028861.50127482414245605469,5032
59,1456028861.60204148292541503906,1456028861.60226345062255859375,4936
60,1456028861.70134329795837402344,1456028861.701557159423828125,4840
61,1456028861.80223846435546875,1456028861.8024578094482421875,4752
62,1456028861.90196871757507324219,1456028861.90218234062194824219,4672
63,1456028862.00149369239807128906,1456028862.00172257423400878906,4600
64,1456028862.10241460800170898438,1456028862.10262989997863769531,4528
65,1456028862.12864995002746582031,1456028862.12886381149291992188,4512
66,1456028862.2205352783203125,1456028862.22074675559997558594,4464
67,1456028862.30517053604125976562,1456028862.30538082122802734375,4424
68,1456028862.40139603614807128906,1456028862.40161252021789550781,4376
69,1456028862.50130462646484375,1456028862.50152373313903808594,4344
70,1456028862.60206842422485351562,1456028862.60228395462036132812,4320
71,1456028862.70545601844787597656,1456028862.70566558837890625,4304
72,1456028862.71688103675842285156,1456028862.7183094024658203125,4296
73,1456028862.80193543434143066406,1456028862.80214715003967285156,4296
74,1456028862.90116953849792480469,1456028862.90137696266174316406,4296
75,1456028863.0011882781982421875,1456028863.00139927864074707031,4304
76,1456028863.01760268211364746094,1456028863.01791429519653320312,4304
77,1456028863.1024188995361328125,1456028863.10262632369995117188,4320
78,1456028863.20182180404663085938,1456028863.20203423500061035156,4344
79,1456028863.30222797393798828125,1456028863.30245184898376464844,4384
80,1456028863.31877875328063964844,1456028863.31898450851440429688,4392
81,1456028863.40186381340026855469,1456028863.40210676193237304688,4424
82,1456028863.50162506103515625,1456028863.50183820724487304688,4472
83,1456028863.60126852989196777344,1456028863.60147833824157714844,4536
84,1456028863.70150136947631835938,1456028863.70171570777893066406,4600
85,1456028863.71726441383361816406,1456028863.71746730804443359375,4616
86,1456028863.80518221855163574219,1456028863.80539870262145996094,4680
87,1456028863.90162968635559082031,1456028863.90184259414672851562,4760
88,1456028864.00159811973571777344,1456028864.00180935859680175781,4840
89,1456028864.10250163078308105469,1456028864.10273623466491699219,4936
90,1456028864.11971211433410644531,1456028864.1199207305908203125,4952
91,1456028864.2158603668212890625,1456028864.21607685089111328125,5048
92,1456028864.31928396224975585938,1456028864.31969714164733886719,5160
93,1456028864.4201717376708984375,1456028864.42038249969482421875,5272
94,1456028864.51566219329833984375,1456028864.51587343215942382812,5376
95,1456028864.6195526123046875,1456028864.61976909637451171875,5504
96,1456028864.71990203857421875,1456028864.720111846923828125,5624
97,1456028864.81652116775512695312,1456028864.81677412986755371094,5736
98,1456028864.92065191268920898438,1456028864.92086338996887207031,5864
99,1456028865.01622414588928222656,1456028865.01643967628479003906,5992
100,1456028865.11949634552001953125,1456028865.11970782279968261719,6120
101,1456028865.21570038795471191406,1456028865.21590924263000488281,6240
102,1456028865.31659984588623046875,1456028865.31680727005004882812,6368
103,1456028865.42014479637145996094,1456028865.42036414146423339844,6488
104,1456028865.51586222648620605469,1456028865.51606988906860351562,6608
105,1456028865.61952376365661621094,1456028865.61973547935485839844,6728
106,1456028865.71997952461242675781,1456028865.72018837928771972656,6848
107,1456028865.81627321243286132812,1456028865.81648159027099609375,6960
108,1456028865.91654109954833984375,1456028865.916751861572265625,7064
109,1456028866.0200023651123046875,1456028866.02022314071655273438,7168
110,1456028866.12007808685302734375,1456028866.12029004096984863281,7272
111,1456028866.219928741455078125,1456028866.22013640403747558594,7360
112,1456028866.31629467010498046875,1456028866.31650495529174804688,7448
113,1456028866.41666102409362792969,1456028866.41686892509460449219,7520
114,1456028866.52011013031005859375,1456028866.52032065391540527344,7600
115,1456028866.61667585372924804688,1456028866.61692333221435546875,7664
116,1456028866.72829389572143554688,1456028866.72850251197814941406,7720
117,1456028866.90251851081848144531,1456028866.90273141860961914062,7808
118,1456028867.01990342140197753906,1456028867.02011990547180175781,7848
119,1456028867.1015758514404296875,1456028867.10180211067199707031,7864
120,1456028867.22154116630554199219,1456028867.22174715995788574219,7888
121,1456028867.34217905998229980469,1456028867.34239077568054199219,7888
122,1456028867.51997828483581542969,1456028867.52019095420837402344,7880
123,1456028867.601287841796875,1456028867.601497650146484375,7864
124,1456028867.8080005645751953125,1456028867.80820941925048828125,7832
125,1456028867.93564152717590332031,1456028867.93603253364562988281,7792
126,1456028867.98077178001403808594,1456028867.98098206520080566406,7736
127,1456028868.10681581497192382812,1456028868.10704159736633300781,7648
128,1456028868.23172974586486816406,1456028868.23194193840026855469,7568
129,1456028868.40249896049499511719,1456028868.40272998809814453125,7424
130,1456028868.50765323638916015625,1456028868.50795650482177734375,7336
131,1456028868.59729361534118652344,1456028868.59750652313232421875,7264
132,1456028868.71658468246459960938,1456028868.71679472923278808594,7136
133,1456028868.90297031402587890625,1456028868.90318512916564941406,6936
134,1456028869.00215983390808105469,1456028869.00236725807189941406,6824
135,1456028869.10240983963012695312,1456028869.10261821746826171875,6704
136,1456028869.20207977294921875,1456028869.20229077339172363281,6584
137,1456028869.31062579154968261719,1456028869.31084346771240234375,6448
138,1456028869.414768218994140625,1456028869.41497850418090820312,6320
139,1456028869.60226535797119140625,1456028869.602489471435546875,6088
140,1456028869.70210742950439453125,1456028869.70231842994689941406,5960
141,1456028869.802631378173828125,1456028869.80284285545349121094,5840
142,1456028869.90595722198486328125,1456028869.90617346763610839844,5712
143,1456028870.00191283226013183594,1456028870.002124786376953125,5592
144,1456028870.10187697410583496094,1456028870.10209059715270996094,5472
145,1456028870.20149064064025878906,1456028870.20169901847839355469,5360
146,1456028870.30204057693481445312,1456028870.30225157737731933594,5240
147,1456028870.40579438209533691406,1456028870.40601277351379394531,5128
148,1456028870.50145840644836425781,1456028870.50166726112365722656,5032
149,1456028870.60202693939208984375,1456028870.60225272178649902344,4936
150,1456028870.70279192924499511719,1456028870.70300221443176269531,4840
151,1456028870.80221843719482421875,1456028870.80242896080017089844,4752
152,1456028870.81891107559204101562,1456028870.81911301612854003906,4736
153,1456028870.91973376274108886719,1456028870.91994786262512207031,4656
154,1456028871.00114560127258300781,1456028871.00135302543640136719,4600
155,1456028871.10217928886413574219,1456028871.10239100456237792969,4528
156,1456028871.20239210128784179688,1456028871.20260214805603027344,4472
157,1456028871.30240988731384277344,1456028871.30262422561645507812,4424
158,1456028871.40571308135986328125,1456028871.40592241287231445312,4376
159,1456028871.41737651824951171875,1456028871.41877961158752441406,4376
160,1456028871.50118732452392578125,1456028871.50140714645385742188,4344
161,1456028871.60189986228942871094,1456028871.60211086273193359375,4320
162,1456028871.70192670822143554688,1456028871.70213007926940917969,4304
163,1456028871.73158740997314453125,1456028871.73180246353149414062,4296
164,1456028871.81942224502563476562,1456028871.8196353912353515625,4296
165,1456028871.90185999870300292969,1456028871.90207338333129882812,4296
166,1456028872.0019969940185546875,1456028872.00221419334411621094,4304
167,1456028872.12061929702758789062,1456028872.1208324432373046875,4328
168,1456028872.1322841644287109375,1456028872.13353133201599121094,4328
169,1456028872.20139980316162109375,1456028872.20162606239318847656,4344
170,1456028872.31924104690551757812,1456028872.31945061683654785156,4392
171,1456028872.40158200263977050781,1456028872.40180325508117675781,4424
172,1456028872.41552853584289550781,1456028872.41573286056518554688,4432
173,1456028872.52002716064453125,1456028872.52023935317993164062,4488
174,1456028872.6016788482666015625,1456028872.60188722610473632812,4536
175,1456028872.71739268302917480469,1456028872.71760487556457519531,4616
176,1456028872.72928929328918457031,1456028872.73053503036499023438,4624
177,1456028872.81922698020935058594,1456028872.81943941116333007812,4688
178,1456028872.92037844657897949219,1456028872.92059111595153808594,4776
179,1456028873.01617693901062011719,1456028873.01640033721923828125,4856
180,1456028873.11940050125122070312,1456028873.11961221694946289062,4952
181,1456028873.21939396858215332031,1456028873.21960544586181640625,5056
182,1456028873.31915569305419921875,1456028873.319366455078125,5160
183,1456028873.41977000236511230469,1456028873.41998362541198730469,5272
184,1456028873.51562809944152832031,1456028873.51584100723266601562,5376
185,1456028873.61931729316711425781,1456028873.61952471733093261719,5504
186,1456028873.71588015556335449219,1456028873.71609163284301757812,5616
187,1456028873.81628870964050292969,1456028873.8165073394775390625,5736
188,1456028873.91982746124267578125,1456028873.92003369331359863281,5864
189,1456028874.01551032066345214844,1456028874.01572465896606445312,5984
190,1456028874.11613345146179199219,1456028874.11634302139282226562,6112
191,1456028874.21937847137451171875,1456028874.21959590911865234375,6240
192,1456028874.32028293609619140625,1456028874.32049059867858886719,6368
193,1456028874.41695237159729003906,1456028874.41716122627258300781,6488
194,1456028874.52002668380737304688,1456028874.52023196220397949219,6616
195,1456028874.61964774131774902344,1456028874.61985921859741210938,6728
196,1456028874.71996927261352539062,1456028874.72018337249755859375,6848
197,1456028874.81640958786010742188,1456028874.81662130355834960938,6960
198,1456028874.91686296463012695312,1456028874.91706871986389160156,7064
199,1456028875.02010798454284667969,1456028875.02032566070556640625,7168
200,1456028875.11627602577209472656,1456028875.1164875030517578125,7264
201,1456028875.21963763236999511719,1456028875.2198467254638671875,7360
202,1456028875.31981778144836425781,1456028875.32002615928649902344,7448
203,1456028875.42007112503051757812,1456028875.42028284072875976562,7528
204,1456028875.51590299606323242188,1456028875.51610827445983886719,7600
205,1456028875.6162014007568359375,1456028875.61641097068786621094,7664
206,1456028875.72178721427917480469,1456028875.72199583053588867188,7720
207,1456028875.84004473686218261719,1456028875.84025120735168457031,7768
208,1456028875.96651792526245117188,1456028875.96672582626342773438,7824
209,1456028876.11820292472839355469,1456028876.11842894554138183594,7872
210,1456028876.21441555023193359375,1456028876.21462917327880859375,7880
211,1456028876.33490872383117675781,1456028876.33511495590209960938,7888
212,1456028876.47691392898559570312,1456028876.47712421417236328125,7888
213,1456028876.60186791419982910156,1456028876.60208177566528320312,7864
214,1456028876.71955561637878417969,1456028876.71977066993713378906,7832
215,1456028876.92893528938293457031,1456028876.92915129661560058594,7800
216,1456028876.97353458404541015625,1456028876.97374415397644042969,7736
217,1456028877.10204839706420898438,1456028877.10225343704223632812,7648
218,1456028877.30609178543090820312,1456028877.30630517005920410156,7584
219,1456028877.43002796173095703125,1456028877.43025255203247070312,7496
220,1456028877.55261969566345214844,1456028877.55283403396606445312,7392
221,1456028877.59219408035278320312,1456028877.59239912033081054688,7280
222,1456028877.79322600364685058594,1456028877.79345035552978515625,7144
223,1456028877.91045928001403808594,1456028877.91067624092102050781,7040
224,1456028877.945529937744140625,1456028877.94573998451232910156,6912
225,1456028878.10263657569885253906,1456028878.10284733772277832031,6704
226,1456028878.20234036445617675781,1456028878.20255303382873535156,6584
227,1456028878.31176066398620605469,1456028878.31197190284729003906,6448
228,1456028878.38821244239807128906,1456028878.38858342170715332031,6368
229,1456028878.50194072723388671875,1456028878.50216436386108398438,6216
230,1456028878.60307431221008300781,1456028878.60328149795532226562,6088
231,1456028878.71682214736938476562,1456028878.71703839302062988281,5944
232,1456028878.81943511962890625,1456028878.81965208053588867188,5816
233,1456028879.00188803672790527344,1456028879.0020999908447265625,5592
234,1456028879.10528159141540527344,1456028879.10549330711364746094,5472
235,1456028879.20158863067626953125,1456028879.20180559158325195312,5360
236,1456028879.30189538002014160156,1456028879.30210828781127929688,5240
237,1456028879.31935191154479980469,1456028879.31955742835998535156,5224
238,1456028879.42177867889404296875,1456028879.42199468612670898438,5112
239,1456028879.51811838150024414062,1456028879.51833820343017578125,5016
240,1456028879.606029510498046875,1456028879.6062450408935546875,4928
241,1456028879.70181679725646972656,1456028879.70202302932739257812,4840
242,1456028879.80578136444091796875,1456028879.80599522590637207031,4752
243,1456028879.90207982063293457031,1456028879.90228772163391113281,4672
244,1456028880.00212216377258300781,1456028880.00233292579650878906,4600
245,1456028880.10186481475830078125,1456028880.10207676887512207031,4528
246,1456028880.12795901298522949219,1456028880.12815260887145996094,4512
247,1456028880.21985507011413574219,1456028880.22006583213806152344,4464
248,1456028880.3024044036865234375,1456028880.30262637138366699219,4424
249,1456028880.40208911895751953125,1456028880.40231585502624511719,4376
250,1456028880.50286865234375,1456028880.50307774543762207031,4344
251,1456028880.60549426078796386719,1456028880.60571432113647460938,4320
252,1456028880.62064576148986816406,1456028880.62084746360778808594,4312
253,1456028880.70173406600952148438,1456028880.70194506645202636719,4304
254,1456028880.80276417732238769531,1456028880.80298137664794921875,4296
255,1456028880.90184092521667480469,1456028880.90206003189086914062,4296
256,1456028881.003948211669921875,1456028881.0041656494140625,4304
257,1456028881.0223217010498046875,1456028881.02253413200378417969,4304
258,1456028881.11912560462951660156,1456028881.11936330795288085938,4320
259,1456028881.20134377479553222656,1456028881.2015666961669921875,4344
260,1456028881.2264614105224609375,1456028881.22666859626770019531,4352
261,1456028881.31991291046142578125,1456028881.32012796401977539062,4392
262,1456028881.40231585502624511719,1456028881.40252447128295898438,4424
263,1456028881.51714801788330078125,1456028881.51735424995422363281,4488
264,1456028881.60178637504577636719,1456028881.60200071334838867188,4536
265,1456028881.61885952949523925781,1456028881.6190643310546875,4544
266,1456028881.71989035606384277344,1456028881.72010827064514160156,4616
267,1456028881.81648993492126464844,1456028881.81670713424682617188,4688
268,1456028881.91668558120727539062,1456028881.91690373420715332031,4768
269,1456028882.01996588706970214844,1456028882.02019214630126953125,4864
270,1456028882.11971163749694824219,1456028882.11992764472961425781,4952
271,1456028882.21952986717224121094,1456028882.2197437286376953125,5056
272,1456028882.31585073471069335938,1456028882.31606197357177734375,5160
273,1456028882.42039203643798828125,1456028882.42060422897338867188,5272
274,1456028882.51964926719665527344,1456028882.51986241340637207031,5384
275,1456028882.61604142189025878906,1456028882.61625432968139648438,5496
276,1456028882.71917390823364257812,1456028882.7193889617919921875,5624
